# wave, flux, spline flux
2.500000000000000000e+00,2.114990000000000176e-18,1.384063980462111002e-17
2.505232302926276855e+00,2.142059999999999832e-18,1.373433093257109845e-17
2.510486553382132335e+00,2.169769999999999818e-18,1.362833655279397992e-17
2.515762953040793892e+00,2.198150000000000125e-18,1.352266016252074387e-17
2.521061515136289621e+00,2.227219999999999848e-18,1.341730909830174513e-17
2.526382443420591262e+00,2.256989999999999883e-18,1.331228694669018347e-17
2.531725879810820423e+00,2.287510000000000087e-18,1.320759860824213055e-17
2.537091967427290928e+00,2.318789999999999816e-18,1.310324903103858635e-17
2.542480915248381823e+00,2.350869999999999956e-18,1.299924196818751580e-17
2.547892739830595943e+00,2.383759999999999864e-18,1.289558495390727848e-17
2.553327652349528520e+00,2.417519999999999906e-18,1.279228183409984342e-17
2.558785800867715121e+00,2.452159999999999823e-18,1.268933775072445821e-17
2.564267334716430646e+00,2.487709999999999992e-18,1.258675789515739859e-17
2.569772404509313102e+00,2.524230000000000011e-18,1.248454750857179728e-17
2.575301228477917981e+00,2.561740000000000129e-18,1.238271066560682387e-17
2.580853827484942187e+00,2.600280000000000080e-18,1.228125514617390419e-17
2.586430422111910765e+00,2.639900000000000105e-18,1.218018512189003283e-17
2.592031168241666794e+00,2.680639999999999936e-18,1.207950603691882565e-17
2.597656223110199392e+00,2.722540000000000075e-18,1.197922338712188100e-17
2.603305813093368393e+00,2.765660000000000120e-18,1.187934152729239811e-17
2.608979962929525609e+00,2.810040000000000187e-18,1.177986844903130015e-17
2.614678901481356732e+00,2.855739999999999874e-18,1.168080860757985360e-17
2.620402791546538879e+00,2.902809999999999810e-18,1.158216770938415107e-17
2.626151797351421013e+00,2.951320000000000101e-18,1.148395151448095294e-17
2.631926153837083948e+00,3.001329999999999960e-18,1.138616466897650029e-17
2.637725889899475096e+00,3.052909999999999881e-18,1.128881538226890602e-17
2.643551243112788995e+00,3.106119999999999847e-18,1.119190840433319658e-17
2.649402383577244890e+00,3.161040000000000091e-18,1.109544971331675870e-17
2.655279482902376476e+00,3.217759999999999817e-18,1.099944534282406561e-17
2.661182714223811363e+00,3.276349999999999904e-18,1.090390138228498265e-17
2.667112323355150583e+00,3.336899999999999940e-18,1.080882284205895666e-17
2.673068344583743094e+00,3.399520000000000150e-18,1.071421820054337041e-17
2.679051026545377301e+00,3.464289999999999999e-18,1.062009257594911286e-17
2.685060548652383972e+00,3.531340000000000347e-18,1.052645228464651597e-17
2.691097091930513940e+00,3.600770000000000139e-18,1.043330370063725292e-17
2.697160911783877069e+00,3.672699999999999724e-18,1.034065214988591500e-17
2.703252047355245047e+00,3.747260000000000351e-18,1.024850634083300475e-17
2.709370757040726829e+00,3.824599999999999663e-18,1.015687171045410524e-17
2.715517228504013225e+00,3.904849999999999679e-18,1.006575486676754956e-17
2.721691651115600852e+00,3.988179999999999836e-18,9.975162477149204536e-18
2.727894290386311038e+00,4.074749999999999831e-18,9.885100193836460979e-18
2.734125190671055528e+00,4.164750000000000122e-18,9.795576960052352770e-18
2.740384620654585657e+00,4.258369999999999629e-18,9.706598541996394252e-18
2.746672776731814203e+00,4.355810000000000090e-18,9.618171847754991354e-18
2.752989857104409577e+00,4.457300000000000156e-18,9.530303846385805046e-18
2.759336061801622275e+00,4.563079999999999758e-18,9.443001568223625989e-18
2.765711669193005928e+00,4.673400000000000108e-18,9.356271070482754692e-18
2.772116730398092255e+00,4.788540000000000098e-18,9.270121583323842163e-18
2.778551527196114979e+00,4.908789999999999901e-18,9.184559281087279456e-18
2.785016267140765223e+00,5.034499999999999673e-18,9.099591442143288774e-18
2.791511159721866253e+00,5.165990000000000350e-18,9.015225407565718265e-18
2.798036494678078689e+00,5.303650000000000279e-18,8.931467582498422006e-18
2.804592329226830660e+00,5.447879999999999857e-18,8.848327439417353517e-18
2.811178956728759282e+00,5.599129999999999727e-18,8.765811502811940692e-18
2.817796594647730579e+00,5.757890000000000259e-18,8.683927367101193527e-18
2.824445462500119852e+00,5.924669999999999768e-18,8.602682690625588961e-18
2.831125862031818929e+00,6.100050000000000140e-18,8.522084235010923926e-18
2.837837857012417864e+00,6.284649999999999912e-18,8.442141716656704563e-18
2.844581753037792815e+00,6.479149999999999917e-18,8.362862018262273697e-18
2.851357778080592098e+00,6.684309999999999679e-18,8.284253055877062217e-18
2.858166162290847634e+00,6.900929999999999995e-18,8.206322810423437433e-18
2.865007220104695218e+00,7.129920000000000346e-18,8.129078407385265928e-18
2.871881022334503708e+00,7.372269999999999676e-18,8.052529807168674134e-18
2.878787887511478516e+00,7.629079999999999468e-18,7.976684257441222147e-18
2.885728054759575834e+00,7.901549999999999374e-18,7.901549999999999374e-18
2.892701765514239298e+00,8.191010000000000298e-18,7.827135342131472516e-18
2.899709263550399374e+00,8.498950000000000525e-18,7.753448656687613727e-18
2.906750879502880469e+00,8.827039999999999832e-18,7.680497513369322407e-18
2.913826693339058860e+00,9.177100000000000264e-18,7.608292162836590100e-18
2.920937040107590921e+00,9.551190000000000713e-18,7.536840297277400694e-18
2.928082173229616725e+00,9.951619999999999745e-18,7.466150552209869894e-18
2.935262348612009742e+00,1.038100000000000046e-17,7.396231628822908680e-18
2.942477911259691936e+00,1.084220000000000075e-17,7.327091471037901324e-18
2.949728949406839273e+00,1.133860000000000066e-17,7.258740566531930174e-18
2.957015812760339202e+00,1.187380000000000071e-17,7.191186980896210253e-18
2.964338767480112935e+00,1.245229999999999960e-17,7.124439677380054148e-18
2.971698082369170990e+00,1.307869999999999959e-17,7.058507684473631279e-18
2.979094117656521767e+00,1.375879999999999954e-17,6.993399321378600735e-18
2.986526970473910136e+00,1.449879999999999869e-17,6.929125305329450473e-18
2.993997006062873556e+00,1.530629999999999997e-17,6.865694075176082530e-18
3.001504504132696649e+00,1.618979999999999993e-17,6.803114918492369101e-18
3.009049747205216896e+00,1.715930000000000082e-17,6.741397187008733723e-18
3.016633020650270947e+00,1.822660000000000130e-17,6.680550296304715852e-18
3.024254704182828490e+00,1.940550000000000047e-17,6.620583012973967616e-18
3.031914906518786701e+00,2.071250000000000130e-17,6.561506314937293044e-18
3.039614012790817554e+00,2.216699999999999922e-17,6.503329084052579786e-18
3.047352320126067493e+00,2.379270000000000129e-17,6.446060987543395287e-18
3.055130128685136004e+00,2.561789999999999986e-17,6.389711754424122261e-18
3.062947835517373374e+00,2.767740000000000035e-17,6.334290517185865112e-18
3.070805559816298658e+00,3.001390000000000020e-17,6.279808453676562292e-18
3.078703704416366538e+00,3.268059999999999850e-17,6.226274805999427741e-18
3.086642582006151603e+00,3.574399999999999716e-17,6.173699544654344359e-18
3.094622508507813397e+00,3.928940000000000296e-17,6.122092698873414005e-18
3.102643899382995674e+00,4.342629999999999826e-17,6.071463755745917992e-18
3.110706885120412934e+00,4.829879999999999756e-17,6.021824071817418054e-18
3.118811887363983626e+00,5.409930000000000302e-17,5.973183235921256445e-18
3.126959235395927905e+00,6.109129999999999786e-17,5.925551504217979237e-18
3.135149261948241950e+00,6.964499999999999573e-17,5.878939187335799454e-18
3.143382402056526193e+00,8.029960000000000373e-17,5.833356109932860080e-18
3.151658798392893424e+00,9.387719999999999533e-17,5.788813779810169408e-18
3.159978892604988765e+00,1.117150000000000068e-16,5.745322112839199110e-18
3.168343031684158984e+00,1.362160000000000030e-16,5.702891626724877061e-18
3.176751566305301644e+00,1.724929999999999957e-16,5.661532887925486904e-18
3.185204850875875682e+00,2.335969999999999874e-16,5.621256510311287119e-18
3.193703345583101871e+00,3.298460000000000058e-16,5.582072691309834446e-18
3.202247209001388928e+00,5.422640000000000291e-16,5.543993073459337123e-18
3.210836908493202912e+00,8.682070000000000087e-16,5.507027928496657098e-18
3.219472813902302111e+00,1.202039999999999906e-15,5.471188045047597214e-18
3.228155299062117400e+00,1.693889999999999999e-15,5.436484251309646137e-18
3.236884846623933942e+00,1.895879999999999954e-15,5.402927018469220458e-18
3.245661629583738605e+00,2.450799999999999908e-15,5.370528051795517200e-18
3.254486138281098118e+00,4.934359999999999977e-15,5.339297878391362187e-18
3.263358763056494638e+00,8.689839999999999225e-15,5.309247465686794091e-18
3.272279898518746677e+00,1.035550000000000034e-14,5.280387810685133733e-18
3.281250051269531731e+00,7.139719999999999982e-15,5.252729613839852428e-18
3.290269409891497521e+00,4.326940000000000058e-15,5.226284586551931428e-18
3.299338489231586014e+00,2.633080000000000179e-15,5.201063462067395447e-18
3.308457701566792863e+00,1.232650000000000022e-15,5.177077331652215022e-18
3.317627463744801108e+00,6.918570000000000126e-16,5.154337303567368952e-18
3.326848197247498806e+00,4.514660000000000474e-16,5.132854500201093780e-18
3.336120439552550110e+00,3.216640000000000042e-16,5.112639820741957079e-18
3.345444399634075250e+00,2.421239999999999975e-16,5.093704890761226559e-18
3.354820623947655456e+00,1.895859999999999956e-16,5.076060606944799331e-18
3.364249553168785045e+00,1.529170000000000007e-16,5.059718116895051180e-18
3.373731632941102010e+00,1.262170000000000056e-16,5.044688565997963820e-18
3.383267428411583566e+00,1.061330000000000006e-16,5.030982937633251809e-18
3.392857167091837045e+00,9.062319999999999708e-17,5.018612689704744011e-18
3.402501423776720824e+00,7.838700000000000052e-17,5.007588766087130216e-18
3.412200664696689589e+00,6.855730000000000420e-17,4.997922264656189480e-18
3.421955361413579588e+00,6.053880000000000022e-17,4.989624260918484466e-18
3.431766108667216653e+00,5.391039999999999935e-17,4.982705728947933607e-18
3.441633154050632193e+00,4.836739999999999733e-17,4.977177851412584965e-18
3.451557102681511058e+00,4.368480000000000039e-17,4.973051517560277878e-18
3.461538448224852349e+00,3.969320000000000077e-17,4.970337666008156056e-18
3.471577690072610078e+00,3.626319999999999976e-17,4.969047188307386310e-18
3.481675333426990537e+00,3.329429999999999701e-17,4.969190923384268374e-18
3.491832011314094597e+00,3.070789999999999974e-17,4.970779679465689304e-18
3.502047997669036405e+00,2.844119999999999932e-17,4.973824134719497857e-18
3.512323936859936158e+00,2.644419999999999985e-17,4.978334944910087213e-18
3.522660358192559293e+00,2.467600000000000028e-17,4.984322678271953017e-18
3.533057797221843543e+00,2.310339999999999988e-17,4.991797819094929069e-18
3.543516921409507692e+00,2.169909999999999881e-17,5.000770877106719843e-18
3.554038028704472829e+00,2.044020000000000006e-17,5.011251932631795609e-18
3.564621798795849283e+00,1.930780000000000137e-17,5.023251273252208654e-18
3.575268793176957338e+00,1.828589999999999913e-17,5.036778974364976003e-18
3.585979580069598605e+00,1.736090000000000135e-17,5.051844989405668093e-18
3.596754863891602483e+00,1.652139999999999900e-17,5.068459349508128587e-18
3.607594968674892488e+00,1.575760000000000003e-17,5.086631340656543221e-18
3.618500612033193509e+00,1.506089999999999972e-17,5.106370687554025802e-18
3.629472390131696979e+00,1.442420000000000064e-17,5.127686767258634935e-18
3.640510906388193746e+00,1.384100000000000054e-17,5.150588788859091618e-18
3.651616904926757723e+00,1.330599999999999992e-17,5.175086085994249788e-18
3.662790738135479174e+00,1.281429999999999968e-17,5.201186914171971933e-18
3.674033164395164697e+00,1.236169999999999948e-17,5.228900198894272795e-18
3.685344817260887584e+00,1.194460000000000037e-17,5.258234370436808138e-18
3.696726338114198374e+00,1.155959999999999972e-17,5.289197635557894169e-18
3.708178376284359867e+00,1.120389999999999937e-17,5.321797965086855867e-18
3.719701727533633928e+00,1.087490000000000058e-17,5.356043500830329443e-18
3.731296781599811485e+00,1.057040000000000039e-17,5.391940882865328083e-18
3.742964349911471533e+00,1.028829999999999940e-17,5.429497695018438143e-18
3.754705114847042946e+00,1.002679999999999968e-17,5.468720830598163193e-18
3.766519767373712746e+00,9.784309999999999362e-18,5.509616877505442635e-18
3.778409149946733603e+00,9.559330000000000425e-18,5.552192622425487288e-18
3.790373686498116790e+00,9.350559999999999648e-18,5.596452976137325915e-18
3.802414236451836516e+00,9.156819999999999937e-18,5.642404014469264855e-18
3.814531526511814263e+00,8.977030000000000064e-18,5.690050942651629790e-18
3.826726292674838437e+00,8.810240000000000045e-18,5.739398576905074766e-18
3.838999427758745142e+00,8.655569999999999619e-18,5.790451947114218391e-18
3.851351392987582667e+00,8.512219999999999531e-18,5.843213812660187430e-18
3.863783099580895275e+00,8.379469999999999987e-18,5.897688308891466958e-18
3.876295322226351647e+00,8.256659999999999637e-18,5.953878502354993294e-18
3.888888845679012718e+00,8.143199999999999934e-18,6.011786970079519716e-18
3.901564464925403541e+00,8.038530000000000012e-18,6.071415777161398020e-18
3.914323138570053207e+00,7.942160000000000270e-18,6.132767198191424105e-18
3.927165377136098368e+00,7.853640000000000066e-18,6.195840735042293145e-18
3.940092159543630235e+00,7.772549999999999522e-18,6.260637498044154026e-18
3.953104323411371190e+00,7.698509999999999259e-18,6.327157263178007124e-18
3.966202717459656579e+00,7.631170000000000664e-18,6.395399169209316389e-18
3.979388360050283513e+00,7.570219999999999459e-18,6.465362537497397743e-18
3.992661807011657515e+00,7.515360000000000353e-18,6.537043472598585491e-18
4.006024098798809163e+00,7.466319999999999573e-18,6.610439856966204710e-18
4.019476130421389293e+00,7.422879999999999748e-18,6.685547990524346138e-18
4.033018808951140066e+00,7.384789999999999668e-18,6.762363385478552164e-18
4.046653217479809328e+00,7.351869999999999384e-18,6.840881682775597472e-18
4.060379961423953965e+00,7.323919999999999467e-18,6.921094837479770164e-18
4.074200147934207372e+00,7.300779999999999450e-18,7.002996721898056752e-18
4.088114734411743001e+00,7.282300000000000147e-18,7.086579348987996859e-18
4.102124691381776600e+00,7.268329999999999288e-18,7.171833763169360213e-18
4.116231002719223042e+00,7.258749999999999991e-18,7.258750000000001531e-18
4.130434836483932948e+00,7.253460000000000229e-18,7.347318114323472542e-18
4.144736863919667336e+00,7.252340000000000038e-18,7.437523876471478654e-18
4.159138279785398851e+00,7.255329999999999434e-18,7.529355088348495361e-18
4.173640123706693572e+00,7.262319999999999734e-18,7.622797315707920448e-18
4.188243449859480272e+00,7.273270000000000434e-18,7.717834889965826501e-18
4.202949503873332660e+00,7.288100000000000532e-18,7.814452023769435865e-18
4.217759017748035077e+00,7.306779999999999264e-18,7.912628113877052110e-18
4.232673266279040725e+00,7.329259999999999471e-18,8.012344626298950476e-18
4.247693364453067666e+00,7.355510000000000391e-18,8.113580432758318422e-18
4.262820443139793802e+00,7.385520000000000742e-18,8.216312899449525437e-18
4.278055832393302005e+00,7.419259999999999763e-18,8.320519082555658552e-18
4.293400330986818503e+00,7.456740000000000275e-18,8.426170658395363097e-18
4.308855300883056572e+00,7.497949999999999457e-18,8.533241342703351798e-18
4.324421939383886304e+00,7.542909999999999871e-18,8.641701850894857887e-18
4.340101461155917661e+00,7.591629999999999717e-18,8.751521066400330368e-18
4.355895288284693301e+00,7.644139999999999756e-18,8.862667305961962906e-18
4.371804293033123123e+00,7.700480000000000490e-18,8.975102906366687364e-18
4.387829932450673986e+00,7.760689999999999340e-18,9.088792128953460322e-18
4.403973493892811675e+00,7.824829999999999370e-18,9.203695771814912902e-18
4.420236283730546667e+00,7.892939999999999541e-18,9.319772407658149392e-18
4.436619627702838464e+00,7.965110000000000599e-18,9.436978295884076218e-18
4.453125069580079476e+00,8.041399999999999443e-18,9.555268713510699333e-18
4.469753579803293242e+00,8.121930000000000662e-18,9.674592183606565433e-18
4.486506741245569252e+00,8.206769999999999357e-18,9.794898873260459767e-18
4.503385960802348542e+00,8.296040000000000116e-18,9.916134839968412515e-18
4.520392666621221522e+00,8.389859999999999821e-18,1.003824333499719906e-17
4.537528514396375279e+00,8.488380000000000742e-18,1.016116616910139994e-17
4.554794565783918614e+00,8.591719999999999763e-18,1.028483770261494718e-17
4.572192519481540707e+00,8.700069999999999652e-18,1.040919355582700308e-17
4.589723892766976121e+00,8.813600000000000619e-18,1.053416460877082266e-17
4.607390226278608836e+00,8.932499999999999270e-18,1.065967833944161239e-17
4.625193298390922969e+00,9.056990000000000677e-18,1.078566020084625349e-17
4.643134271642670008e+00,9.187310000000000150e-18,1.091202744464796590e-17
4.661214971785199168e+00,9.323729999999999922e-18,1.103869802647340533e-17
4.679437037519538656e+00,9.466540000000000166e-18,1.116558442876037597e-17
4.697802133271948399e+00,9.616060000000000276e-18,1.129259501052601954e-17
4.716311949700721762e+00,9.772659999999999890e-18,1.141963384565884086e-17
4.734968428414261687e+00,9.936760000000000426e-18,1.154660207377995301e-17
4.753772867489580278e+00,1.010879999999999971e-17,1.167339164694599124e-17
4.772727261880165273e+00,1.028940000000000012e-17,1.179989426864583222e-17
4.791833412486435684e+00,1.047909999999999996e-17,1.192599512345853325e-17
4.811093149162121385e+00,1.067859999999999955e-17,1.205157420109824028e-17
4.830508564636600610e+00,1.088890000000000066e-17,1.217650758324210810e-17
4.850081083655556569e+00,1.111100000000000043e-17,1.230066125683323527e-17
4.869812857961680841e+00,1.134610000000000005e-17,1.242389986816454767e-17
4.889705839208478011e+00,1.159609999999999949e-17,1.254608050182764368e-17
4.909762011069942922e+00,1.186290000000000026e-17,1.266705394126105984e-17
4.929983632947337213e+00,1.214969999999999938e-17,1.278666584302580217e-17
4.950372270469925340e+00,1.246040000000000035e-17,1.290475076705047798e-17
4.970930248453556466e+00,1.280110000000000039e-17,1.302114050076938769e-17
4.991659685414624903e+00,1.318090000000000048e-17,1.313565803346058207e-17
5.012562735355484911e+00,1.361440000000000053e-17,1.324828431097001725e-17
5.033641841886061563e+00,1.412699999999999886e-17,1.336151146936271695e-17
5.054898727631440991e+00,1.476579999999999888e-17,1.347991209537728526e-17
5.076335908863120139e+00,1.562860000000000018e-17,1.360834739333941985e-17
5.097955689180904137e+00,1.694640000000000098e-17,1.375192347426128681e-17
5.119760411595970950e+00,1.937789999999999917e-17,1.391600323233577817e-17
5.141752459377327611e+00,2.532390000000000127e-17,1.410621733188752538e-17
5.163934523582372371e+00,4.269409999999999841e-17,1.432847854507974394e-17
5.186308539614865154e+00,5.255070000000000188e-17,1.458898269807076908e-17
5.208877281195249509e+00,4.716160000000000025e-17,1.489423699752566469e-17
5.231643301537323154e+00,3.259860000000000155e-17,1.525106287389432120e-17
5.254609198687335336e+00,2.460480000000000022e-17,1.566661202229918709e-17
5.277777895061730895e+00,2.151580000000000071e-17,1.614838677418994763e-17
5.301151526736941122e+00,2.061799999999999922e-17,1.670423105446746776e-17
5.324733108402408099e+00,2.051949999999999932e-17,1.734238028919736158e-17
5.348525427585191672e+00,2.077489999999999875e-17,1.807145536565719494e-17
5.372531321857606734e+00,2.122910000000000054e-17,1.890048482691407983e-17
5.396753971214901746e+00,2.181789999999999851e-17,1.983893438329468753e-17
5.421195736880096483e+00,2.251269999999999885e-17,2.089667905827643083e-17
5.445859902095420146e+00,2.330109999999999999e-17,2.208408959143668799e-17
5.470749516207943586e+00,2.417949999999999988e-17,2.341200898763845577e-17
5.495867684567312672e+00,2.514919999999999865e-17,2.489178401002300208e-17
5.521217569817314264e+00,2.621539999999999996e-17,2.654030479683168988e-17
5.546802700893545435e+00,2.738630000000000041e-17,2.840881791228588096e-17
5.572625746578602879e+00,2.867290000000000094e-17,3.056498864548641252e-17
5.598690354352309662e+00,3.008940000000000261e-17,3.308023460003102322e-17
