bd+30_SWS_CWsubFitting and integrated flux data

Section 1: Aliphatic features
Gaussian fitting parameters for 6.9 and 7.2 micron features
[5.00000000e-14 6.93928951e+00 1.26562285e-01 6.41033203e-16
 7.20064789e+00 0.00000000e+00]
Errors on aliphatic fitting parameters
[0.         0.00753537 0.0060168  0.         0.         0.        ]
Fit model - aliphatic features
[6.60182 6.60512 6.60842 6.61173 6.61503 6.61834 6.62165 6.62496 6.62828
 6.63159 6.63491 6.63823 6.64155 6.64487 6.64819 6.65152 6.65484 6.65817
 6.6615  6.66483 6.66817 6.6715  6.67484 6.67818 6.68152 6.68486 6.6882
 6.69155 6.69489 6.69824 6.70159 6.70494 6.7083  6.71165 6.71501 6.71837
 6.72173 6.72509 6.72845 6.73182 6.73518 6.73855 6.74192 6.74529 6.74867
 6.75204 6.75542 6.7588  6.76218 6.76556 6.76894 6.77233 6.77572 6.7791
 6.7825  6.78589 6.78928 6.79268 6.79607 6.79947 6.80287 6.80628 6.80968
 6.81309 6.81649 6.8199  6.82331 6.82673 6.83014 6.83355 6.83697 6.84039
 6.84381 6.84724 6.85066 6.85409 6.85751 6.86094 6.86438 6.86781 6.87124
 6.87468 6.87812 6.88156 6.885   6.88844 6.89189 6.89533 6.89878 6.90223
 6.90569 6.90914 6.91259 6.91605 6.91951 6.92297 6.92643 6.9299  6.93336
 6.93683 6.9403  6.94377 6.94388 6.94724 6.94735 6.95072 6.95083 6.95419
 6.95431 6.95767 6.95778 6.96115 6.96126 6.96463 6.96475 6.96812 6.96823
 6.9716  6.97171 6.97509 6.9752  6.97858 6.97869 6.98207 6.98218 6.98556
 6.98567 6.98905 6.98916 6.99255 6.99266 6.99605 6.99616 6.99954 6.99966
 7.00304 7.00316 7.00655 7.00666 7.01005 7.01016 7.01356 7.01367 7.01707
 7.01718 7.02057 7.02069 7.02409 7.0242  7.0276  7.02771 7.03111 7.03123
 7.03463 7.03474 7.03815 7.03826 7.04167 7.04178 7.04519 7.0453  7.04871
 7.04883 7.05224 7.05235 7.05577 7.05588 7.05929 7.05941 7.06282 7.06294
 7.06636 7.06647 7.06989 7.07    7.07354 7.07708 7.08062 7.08416 7.0877
 7.09125 7.09479 7.09834 7.10189 7.10544 7.109   7.11255 7.11611 7.11967
 7.12323 7.12679 7.13035 7.13392 7.13749 7.14106 7.14463 7.1482  7.15178
 7.15535 7.15893 7.16251 7.1661  7.16968 7.17327 7.17685 7.18044 7.18403
 7.18763 7.19122 7.19482 7.19842 7.20202 7.20562 7.20922 7.21283 7.21643
 7.22004 7.22365 7.22727 7.23088 7.2345  7.23812 7.24174 7.24536 7.24898
 7.25261 7.25623 7.25986 7.26349 7.26713 7.27076 7.2744  7.27804 7.28168
 7.28532 7.28896 7.29261 7.29625 7.2999  7.30355 7.30721 7.31086 7.31452
 7.31817 7.32184 7.3255  7.32916 7.33283 7.33649 7.34016 7.34383 7.34751
 7.35118 7.35486 7.35854 7.36222 7.3659  7.36958 7.37327 7.37696 7.38064
 7.38434 7.38803 7.39172 7.39542 7.39912 7.40282 7.40652 7.41023 7.41393
 7.41764 7.42135 7.42506 7.42878 7.43249 7.43621 7.43993 7.44365 7.44737
 7.4511  7.45482 7.45855 7.46228 7.46601 7.46975 7.47348 7.47722 7.48096
 7.4847  7.48844 7.49219 7.49594 7.49968 7.50344 7.50719 7.51094 7.5147
 7.51846 7.52222 7.52598 7.52974 7.53351 7.53728 7.54105 7.54482 7.54859
 7.55237 7.55614 7.55992 7.5637  7.56749 7.57127 7.57506 7.57885 7.58264
 7.58643 7.59022 7.59402 7.59782 7.60162 7.60542 7.60922 7.61303 7.61684
 7.62064 7.62446 7.62827 7.63208 7.6359  7.63972 7.64354 7.64736]
[1.42917567e-15 1.53155370e-15 1.64015007e-15 1.75561181e-15
 1.87753671e-15 2.00696658e-15 2.14385196e-15 2.28850778e-15
 2.44172791e-15 2.60291429e-15 2.77337084e-15 2.95295733e-15
 3.14200990e-15 3.34086617e-15 3.54986436e-15 3.77001965e-15
 4.00034728e-15 4.24257129e-15 4.49634836e-15 4.76200778e-15
 5.04072619e-15 5.33115182e-15 5.63533894e-15 5.95273534e-15
 6.28363058e-15 6.62830151e-15 6.98701065e-15 7.36114318e-15
 7.74869539e-15 8.15219968e-15 8.57070908e-15 9.00439266e-15
 9.45475874e-15 9.91924610e-15 1.04007203e-14 1.08978813e-14
 1.14107617e-14 1.19393615e-14 1.24836470e-14 1.30452382e-14
 1.36206957e-14 1.42132993e-14 1.48211736e-14 1.54440916e-14
 1.60836980e-14 1.67358947e-14 1.74041931e-14 1.80862740e-14
 1.87816857e-14 1.94899301e-14 2.02104623e-14 2.09448732e-14
 2.16904038e-14 2.24441171e-14 2.32120069e-14 2.39865530e-14
 2.47691674e-14 2.55613121e-14 2.63574033e-14 2.71611671e-14
 2.79692493e-14 2.87829849e-14 2.95965057e-14 3.04134608e-14
 3.12278928e-14 3.20433906e-14 3.28563243e-14 3.36677999e-14
 3.44717859e-14 3.52693583e-14 3.60615014e-14 3.68445220e-14
 3.76170667e-14 3.83799816e-14 3.91274539e-14 3.98624873e-14
 4.05794397e-14 4.12811532e-14 4.19661304e-14 4.26290652e-14
 4.32706792e-14 4.38914727e-14 4.44882940e-14 4.50599294e-14
 4.56052058e-14 4.61229938e-14 4.66135918e-14 4.70731238e-14
 4.75032815e-14 4.79017624e-14 4.82687191e-14 4.86012341e-14
 4.88996905e-14 4.91641476e-14 4.93931056e-14 4.95860561e-14
 4.97425697e-14 4.98625896e-14 4.99451559e-14 4.99905597e-14
 4.99984064e-14 4.99686782e-14 4.99671219e-14 4.99014422e-14
 4.98986989e-14 4.97964945e-14 4.97925671e-14 4.96546745e-14
 4.96491096e-14 4.94754852e-14 4.94692219e-14 4.92596856e-14
 4.92522726e-14 4.90077611e-14 4.89984364e-14 4.87193994e-14
 4.87097362e-14 4.83968965e-14 4.83861409e-14 4.80391205e-14
 4.80272933e-14 4.76477442e-14 4.76348717e-14 4.72236339e-14
 4.72097445e-14 4.67677229e-14 4.67528470e-14 4.62810079e-14
 4.62651780e-14 4.57630241e-14 4.57462718e-14 4.52162446e-14
 4.51986062e-14 4.46435239e-14 4.46233576e-14 4.40428004e-14
 4.40217512e-14 4.34151210e-14 4.33950559e-14 4.27653724e-14
 4.27445803e-14 4.20911928e-14 4.20697144e-14 4.13957899e-14
 4.13736691e-14 4.06826394e-14 4.06578562e-14 3.99469804e-14
 3.99237090e-14 3.91964556e-14 3.91726773e-14 3.84304619e-14
 3.84040182e-14 3.76482272e-14 3.76235717e-14 3.68533963e-14
 3.68283710e-14 3.60474513e-14 3.60221026e-14 3.52318681e-14
 3.52062418e-14 3.44081117e-14 3.43799024e-14 3.35752647e-14
 3.35492191e-14 3.27370996e-14 3.27109112e-14 3.18974262e-14
 3.18687492e-14 3.10528633e-14 3.10241251e-14 3.02047579e-14
 3.01784005e-14 2.93592333e-14 2.93329026e-14 2.84865343e-14
 2.76429522e-14 2.68033737e-14 2.59689704e-14 2.51408661e-14
 2.43178274e-14 2.35055154e-14 2.27003157e-14 2.19054574e-14
 2.11218067e-14 2.03480173e-14 1.95891907e-14 1.88417510e-14
 1.81084971e-14 1.73900142e-14 1.66868303e-14 1.59994165e-14
 1.53263257e-14 1.46698748e-14 1.40303729e-14 1.34080761e-14
 1.28031894e-14 1.22142474e-14 1.16446475e-14 1.10912598e-14
 1.05557215e-14 1.00365854e-14 9.53667711e-15 9.05309850e-15
 8.58840250e-15 8.13981741e-15 7.70845786e-15 7.29295574e-15
 6.89535416e-15 6.51314674e-15 6.14714935e-15 5.79702648e-15
 5.46242417e-15 5.14297217e-15 4.83745994e-15 4.54718259e-15
 4.27011827e-15 4.00667463e-15 3.75575135e-15 3.51830391e-15
 3.29258118e-15 3.07882026e-15 2.87658281e-15 2.68543181e-15
 2.50493279e-15 2.33419847e-15 2.17374278e-15 2.02225683e-15
 1.87978079e-15 1.74554863e-15 1.61989676e-15 1.50173949e-15
 1.39104964e-15 1.28745311e-15 1.19058657e-15 1.10009782e-15
 1.01542207e-15 9.36693413e-16 8.63160043e-16 7.94737999e-16
 7.30963455e-16 6.71900405e-16 6.16951742e-16 5.66157182e-16
 5.18864789e-16 4.75237729e-16 4.34915044e-16 3.97583230e-16
 3.63240443e-16 3.31503759e-16 3.02285654e-16 2.75340918e-16
 2.50650445e-16 2.27923104e-16 2.07081379e-16 1.87986461e-16
 1.70508063e-16 1.54524056e-16 1.39882195e-16 1.26520123e-16
 1.14368722e-16 1.03239627e-16 9.31399671e-17 8.39569323e-17
 7.55934562e-17 6.80049722e-17 6.11259972e-17 5.48959205e-17
 4.92442273e-17 4.41495303e-17 3.95362960e-17 3.53746936e-17
 3.16239570e-17 2.82379936e-17 2.52005480e-17 2.24635412e-17
 2.00065064e-17 1.78028321e-17 1.58282075e-17 1.40559567e-17
 1.24753185e-17 1.10592809e-17 9.79546192e-18 8.66853549e-18
 7.66205918e-18 6.76878725e-18 5.97245877e-18 5.26521624e-18
 4.63767189e-18 4.08135699e-18 3.58740160e-18 3.15046120e-18
 2.76527889e-18 2.42336364e-18 2.12260363e-18 1.85753900e-18
 1.62356506e-18 1.41781034e-18 1.23703866e-18 1.07836329e-18
 9.39211940e-19 8.16991797e-19 7.10045916e-19 6.16552153e-19
 5.34894154e-19 4.63639609e-19 4.01366976e-19 3.47282251e-19
 3.00102711e-19 2.59101453e-19 2.23414861e-19 1.92546737e-19
 1.65729758e-19 1.42519856e-19 1.22450568e-19 1.05113084e-19
 9.01494958e-20 7.72152103e-20 6.60770894e-20 5.64946654e-20
 4.82583498e-20 4.11856556e-20 3.51030878e-20 2.98917323e-20
 2.54418103e-20 2.16163265e-20 1.83572209e-20 1.55753712e-20
 1.31973712e-20 1.11722544e-20 9.44927658e-21 7.98473785e-21]

Integrated fluxes of aliphatic features
6.9 micron feature 1.5801429589849725e-14
7.2 micron feature 0.0
S/N of 6.9: 4.010912375984894
S/N of 7.2: nan

Section 2: 7.7 micron complex
Gaussian fitting parameters for 7.7 micron complex
[5.14456310e-13 7.60798377e+00 1.10661418e-01 9.60409564e-13
 7.86517245e+00 1.16764295e-01 1.71742367e-15 8.10000000e+00
 3.41975398e-02 2.35832862e-13 8.64242394e+00 7.42608293e-02]
Errors on fitting parameters
[7.90558812e-15 2.99445998e-03 1.78727357e-03 5.31044797e-15
 1.58593236e-03 1.36333676e-03 6.82330808e-15 0.00000000e+00
 1.49913006e-01 4.82677115e-15 1.73677329e-03 1.75958862e-03]
Fit model - 7.7 micron complex
[7.10189 7.10544 7.109   7.11255 7.11611 7.11967 7.12323 7.12679 7.13035
 7.13392 7.13749 7.14106 7.14463 7.1482  7.15178 7.15535 7.15893 7.16251
 7.1661  7.16968 7.17327 7.17685 7.18044 7.18403 7.18763 7.19122 7.19482
 7.19842 7.20202 7.20562 7.20922 7.21283 7.21643 7.22004 7.22365 7.22727
 7.23088 7.2345  7.23812 7.24174 7.24536 7.24898 7.25261 7.25623 7.25986
 7.26349 7.26713 7.27076 7.2744  7.27804 7.28168 7.28532 7.28896 7.29261
 7.29625 7.2999  7.30355 7.30721 7.31086 7.31452 7.31817 7.32184 7.3255
 7.32916 7.33283 7.33649 7.34016 7.34383 7.34751 7.35118 7.35486 7.35854
 7.36222 7.3659  7.36958 7.37327 7.37696 7.38064 7.38434 7.38803 7.39172
 7.39542 7.39912 7.40282 7.40652 7.41023 7.41393 7.41764 7.42135 7.42506
 7.42878 7.43249 7.43621 7.43993 7.44365 7.44737 7.4511  7.45482 7.45855
 7.46228 7.46601 7.46975 7.47348 7.47722 7.48096 7.4847  7.48844 7.49219
 7.49594 7.49968 7.50344 7.50719 7.51094 7.5147  7.51846 7.52222 7.52598
 7.52974 7.53351 7.53728 7.54105 7.54482 7.54859 7.55237 7.55614 7.55992
 7.5637  7.56749 7.57127 7.57506 7.57885 7.58264 7.58643 7.59022 7.59402
 7.59782 7.60162 7.60542 7.60922 7.61303 7.61684 7.62064 7.62446 7.62827
 7.63208 7.6359  7.63972 7.64354 7.64736 7.65119 7.65501 7.65884 7.66267
 7.66651 7.67034 7.67418 7.67801 7.68185 7.6857  7.68954 7.69339 7.69723
 7.70108 7.70493 7.70879 7.71264 7.7165  7.72036 7.72422 7.72808 7.73195
 7.73582 7.73969 7.74356 7.74743 7.7513  7.75518 7.75906 7.76294 7.76682
 7.77071 7.77459 7.77848 7.78237 7.78626 7.79016 7.79405 7.79795 7.80185
 7.80575 7.80966 7.81356 7.81747 7.82138 7.82529 7.82921 7.83312 7.83704
 7.84096 7.84488 7.8488  7.85273 7.85666 7.86058 7.86452 7.86845 7.87238
 7.87632 7.88026 7.8842  7.88814 7.89209 7.89604 7.89999 7.90394 7.90789
 7.91184 7.9158  7.91976 7.92372 7.92768 7.93165 7.93562 7.93958 7.94356
 7.94753 7.9515  7.95548 7.95946 7.96344 7.96742 7.97141 7.97539 7.97938
 7.98337 7.98737 7.99136 7.99536 7.99936 8.00336 8.00736 8.01136 8.01537
 8.01938 8.02339 8.0274  8.03142 8.03543 8.03945 8.04347 8.0475  8.05152
 8.05555 8.05958 8.06361 8.06764 8.07167 8.07571 8.07975 8.08379 8.08783
 8.09188 8.09593 8.09997 8.10403 8.10808 8.11213 8.11619 8.12025 8.12431
 8.12838 8.13244 8.13651 8.14058 8.14465 8.14872 8.1528  8.15687 8.16095
 8.16504 8.16912 8.1732  8.17729 8.18138 8.18547 8.18957 8.19366 8.19776
 8.20186 8.20596 8.21007 8.21417 8.21828 8.22239 8.2265  8.23062 8.23473
 8.23885 8.24297 8.2471  8.25122 8.25535 8.25947 8.26361 8.26774 8.27187
 8.27601 8.28015 8.28429 8.28843 8.29258 8.29673 8.30088 8.30503 8.30918
 8.31334 8.31749 8.32165 8.32582 8.32998 8.33415 8.33831 8.34248 8.34666
 8.35083 8.35501 8.35919 8.36337 8.36755 8.37173 8.37592 8.38011 8.3843
 8.38849 8.39269 8.39689 8.40109 8.40529 8.40949 8.4137  8.4179  8.42212
 8.42633 8.43054 8.43476 8.43898 8.4432  8.44742 8.45164 8.45587 8.4601
 8.46433 8.46856 8.4728  8.47704 8.48128 8.48552 8.48976 8.49401 8.49826
 8.50251 8.50676 8.51101 8.51527 8.51953 8.52379 8.52805 8.53232 8.53658
 8.54085 8.54513 8.5494  8.55367 8.55795 8.56223 8.56651 8.5708  8.57509
 8.57937 8.58366 8.58796 8.59225 8.59655 8.60085 8.60515 8.60946 8.61376
 8.61807 8.62238 8.62669 8.63101 8.63532 8.63964 8.64396 8.64828 8.65261
 8.65694 8.66127 8.6656  8.66993 8.67427 8.67861 8.68295 8.68729 8.69163
 8.69598 8.70033 8.70468 8.70903 8.71339 8.71775 8.72211 8.72647 8.73083
 8.7352  8.73957 8.74394 8.74831 8.75269 8.75707 8.76145 8.76583 8.77021
 8.7746  8.77899 8.78338 8.78777 8.79216 8.79656 8.80096 8.80536 8.80977
 8.81417 8.81858 8.82299 8.8274  8.83182 8.83624 8.84066 8.84508 8.8495
 8.85393 8.85835 8.86278 8.86722 8.87165 8.87609 8.88053 8.88497 8.88941
 8.89386 8.89831]
[1.47777039e-17 1.71041178e-17 1.97844721e-17 2.28519434e-17
 2.63784556e-17 3.04176868e-17 3.50391527e-17 4.03210290e-17
 4.63511185e-17 5.32485229e-17 6.11086926e-17 7.00561883e-17
 8.02302426e-17 9.17862867e-17 1.04936697e-16 1.19801436e-16
 1.36679703e-16 1.55772794e-16 1.77411390e-16 2.01771114e-16
 2.29317006e-16 2.60257766e-16 2.95167395e-16 3.34407608e-16
 3.78596063e-16 4.28024651e-16 4.83560835e-16 5.45725226e-16
 6.15230030e-16 6.92853828e-16 7.79446528e-16 8.76217275e-16
 9.83640739e-16 1.10341646e-15 1.23646129e-15 1.38450575e-15
 1.54814219e-15 1.72980670e-15 1.93072287e-15 2.15267252e-15
 2.39757211e-15 2.66747956e-15 2.96546169e-15 3.29224364e-15
 3.65216934e-15 4.04709235e-15 4.48115062e-15 4.95503942e-15
 5.47465065e-15 6.04222043e-15 6.66143238e-15 7.33617425e-15
 8.07054127e-15 8.87112396e-15 9.73806303e-15 1.06808797e-14
 1.17022711e-14 1.28105795e-14 1.40051647e-14 1.52982142e-14
 1.66884824e-14 1.81938742e-14 1.98087614e-14 2.15434974e-14
 2.34099046e-14 2.54045273e-14 2.75451295e-14 2.98334321e-14
 3.22833779e-14 3.48887943e-14 3.76710791e-14 4.06305752e-14
 4.37744701e-14 4.71098870e-14 5.06438486e-14 5.43936863e-14
 5.83568299e-14 6.25281759e-14 6.69489085e-14 7.15900649e-14
 7.64688771e-14 8.16047439e-14 8.69895340e-14 9.26275011e-14
 9.85223376e-14 1.04694114e-13 1.11111987e-13 1.17812372e-13
 1.24779248e-13 1.32012779e-13 1.39532853e-13 1.47297467e-13
 1.55345968e-13 1.63654310e-13 1.72218024e-13 1.81031629e-13
 1.90113281e-13 1.99406711e-13 2.08953226e-13 2.18718424e-13
 2.28691520e-13 2.38888211e-13 2.49241107e-13 2.59791823e-13
 2.70497964e-13 2.81343745e-13 2.92312531e-13 3.03416634e-13
 3.14608598e-13 3.25839390e-13 3.37179835e-13 3.48519677e-13
 3.59868713e-13 3.71236583e-13 3.82572166e-13 3.93854579e-13
 4.05063042e-13 4.16177009e-13 4.27205379e-13 4.38098609e-13
 4.48837485e-13 4.59403560e-13 4.69779283e-13 4.79974819e-13
 4.89920824e-13 4.99655891e-13 5.09140539e-13 5.18387524e-13
 5.27338360e-13 5.36032396e-13 5.44439363e-13 5.52554908e-13
 5.60376610e-13 5.67904020e-13 5.75157398e-13 5.82120096e-13
 5.88797756e-13 5.95198045e-13 6.01330615e-13 6.07222199e-13
 6.12869889e-13 6.18275138e-13 6.23496869e-13 6.28511969e-13
 6.33354554e-13 6.38058260e-13 6.42633015e-13 6.47102679e-13
 6.51491945e-13 6.55837433e-13 6.60142264e-13 6.64455103e-13
 6.68790841e-13 6.73186986e-13 6.77646227e-13 6.82216854e-13
 6.86899083e-13 6.91740349e-13 6.96763576e-13 7.01962846e-13
 7.07383712e-13 7.13014461e-13 7.18898775e-13 7.25034344e-13
 7.31447702e-13 7.38112582e-13 7.45067829e-13 7.52297845e-13
 7.59801039e-13 7.67572800e-13 7.75626608e-13 7.83931856e-13
 7.92474629e-13 8.01237954e-13 8.10201846e-13 8.19343390e-13
 8.28661028e-13 8.38102680e-13 8.47637077e-13 8.57230525e-13
 8.66871872e-13 8.76473495e-13 8.86044873e-13 8.95519530e-13
 9.04854426e-13 9.14028689e-13 9.22950240e-13 9.31619233e-13
 9.39966357e-13 9.47945593e-13 9.55530094e-13 9.62635920e-13
 9.69255137e-13 9.75325664e-13 9.80805740e-13 9.85666927e-13
 9.89846366e-13 9.93329527e-13 9.96071374e-13 9.98041166e-13
 9.99211083e-13 9.99556214e-13 9.99050912e-13 9.97681577e-13
 9.95419691e-13 9.92268016e-13 9.88214541e-13 9.83241802e-13
 9.77358997e-13 9.70569909e-13 9.62882031e-13 9.54283623e-13
 9.44807886e-13 9.34473143e-13 9.23301088e-13 9.11316639e-13
 8.98547772e-13 8.84990175e-13 8.70708982e-13 8.55740476e-13
 8.40123211e-13 8.23856067e-13 8.07020381e-13 7.89704770e-13
 7.71821756e-13 7.53551008e-13 7.34895588e-13 7.15855224e-13
 6.96525044e-13 6.76953697e-13 6.57189632e-13 6.37230712e-13
 6.17224460e-13 5.97117126e-13 5.77004701e-13 5.56881560e-13
 5.36891609e-13 5.16976529e-13 4.97226818e-13 4.77680942e-13
 4.58375447e-13 4.39344865e-13 4.20575231e-13 4.02144952e-13
 3.84082219e-13 3.66412859e-13 3.49117779e-13 3.32303938e-13
 3.15905856e-13 2.99981758e-13 2.84506863e-13 2.69568225e-13
 2.55099019e-13 2.41141786e-13 2.27698601e-13 2.14768997e-13
 2.02350153e-13 1.90408201e-13 1.78967780e-13 1.68020562e-13
 1.57557035e-13 1.47542695e-13 1.37993072e-13 1.28918849e-13
 1.20243031e-13 1.12020191e-13 1.04217455e-13 9.68062986e-14
 8.97958091e-14 8.31753455e-14 7.69192821e-14 7.10474182e-14
 6.55195131e-14 6.03387015e-14 5.54926991e-14 5.09686919e-14
 4.67433697e-14 4.28236488e-14 3.91760748e-14 3.57882176e-14
 3.26620688e-14 2.97745248e-14 2.71050042e-14 2.46467528e-14
 2.23860608e-14 2.03048493e-14 1.84005809e-14 1.66518117e-14
 1.50518687e-14 1.35898489e-14 1.22523697e-14 1.10362581e-14
 9.92646711e-15 8.91754595e-15 8.00148863e-15 7.16889155e-15
 6.41680129e-15 5.73501725e-15 5.11936153e-15 4.56288555e-15
 4.06301151e-15 3.61241179e-15 3.20874968e-15 2.84504867e-15
 2.52022630e-15 2.22980038e-15 1.96991585e-15 1.73830726e-15
 1.53222642e-15 1.34917026e-15 1.18649730e-15 1.04260551e-15
 9.15629446e-16 8.03897721e-16 7.05922683e-16 6.20199510e-16
 5.45992934e-16 4.81957067e-16 4.27332735e-16 3.81706951e-16
 3.44341490e-16 3.15058306e-16 2.93523251e-16 2.79771505e-16
 2.74030623e-16 2.76631745e-16 2.88170266e-16 3.09449849e-16
 3.41528013e-16 3.85741541e-16 4.43891935e-16 5.17887841e-16
 6.10107031e-16 7.23344054e-16 8.61211201e-16 1.02724494e-15
 1.22577609e-15 1.46173172e-15 1.74068084e-15 2.06972449e-15
 2.45429817e-15 2.90517695e-15 3.42800995e-15 4.03323366e-15
 4.73292073e-15 5.53696472e-15 6.45744618e-15 7.50727145e-15
 8.70012871e-15 1.00538219e-14 1.15808429e-14 1.32968579e-14
 1.52179166e-14 1.73656253e-14 1.97520961e-14 2.23935299e-14
 2.53056710e-14 2.85035278e-14 3.20096823e-14 3.58296277e-14
 3.99743333e-14 4.44526890e-14 4.92711418e-14 5.44458859e-14
 5.99664686e-14 6.58298410e-14 7.20291086e-14 7.85689355e-14
 8.54032698e-14 9.25441524e-14 9.99687413e-14 1.07612719e-13
 1.15458819e-13 1.23487008e-13 1.31635434e-13 1.39856203e-13
 1.48116844e-13 1.56342769e-13 1.64456911e-13 1.72436865e-13
 1.80219440e-13 1.87705721e-13 1.94867829e-13 2.01626052e-13
 2.07920358e-13 2.13706243e-13 2.18903104e-13 2.23485669e-13
 2.27396891e-13 2.30598485e-13 2.33063603e-13 2.34756247e-13
 2.35667200e-13 2.35782416e-13 2.35100728e-13 2.33624726e-13
 2.31370034e-13 2.28359400e-13 2.24622963e-13 2.20197754e-13
 2.15114665e-13 2.09432367e-13 2.03204927e-13 1.96490389e-13
 1.89349882e-13 1.81829038e-13 1.74008815e-13 1.65954510e-13
 1.57730862e-13 1.49381980e-13 1.40988177e-13 1.32608121e-13
 1.24296956e-13 1.16105772e-13 1.08062999e-13 1.00229667e-13
 9.26427914e-14 8.53341851e-14 7.83147735e-14 7.16231678e-14
 6.52758498e-14 5.92844400e-14 5.36559748e-14 4.83816358e-14
 4.34735673e-14 3.89271208e-14 3.47345405e-14 3.08853913e-14
 2.73593356e-14 2.41509009e-14 2.12440090e-14 1.86158633e-14
 1.62604873e-14 1.41488310e-14 1.22680623e-14 1.05998520e-14
 9.12310952e-15 7.82433498e-15 6.68672466e-15 5.69430735e-15
 4.83203227e-15 4.08426247e-15 3.44129578e-15 2.88814029e-15
 2.41430442e-15 2.01184168e-15 1.66980612e-15 1.38097495e-15
 1.13802828e-15 9.34475267e-16 7.64244046e-16 6.22783099e-16]
Integrated fluxes
Total integrated flux of complex: 4.2394755810945434e-13
Section 3: 11.2 micron feature
Integrated flux of 11.2 micron feature:
2.3847951322196407e-13
