crl2688_SWS_CWsubFitting and integrated flux data

Section 1: Aliphatic features
Gaussian fitting parameters for 6.9 and 7.2 micron features
[5.00000000e-14 6.87390815e+00 5.46816901e-02 1.00000000e-14
 7.00000000e+00 1.34448560e-01]
Errors on aliphatic fitting parameters
[0.         0.00756286 0.00698641 0.         0.         0.04674106]
Fit model - aliphatic features
[6.60043 6.60263 6.60483 6.60704 6.60924 6.61144 6.61365 6.61585 6.61806
 6.62026 6.62247 6.62468 6.62689 6.6291  6.63131 6.63352 6.63573 6.63794
 6.64015 6.64237 6.64458 6.6468  6.64901 6.65123 6.65345 6.65567 6.65789
 6.6601  6.66232 6.66455 6.66677 6.66899 6.67121 6.67344 6.67566 6.67789
 6.68011 6.68234 6.68457 6.6868  6.68903 6.69126 6.69349 6.69572 6.69795
 6.70019 6.70242 6.70465 6.70689 6.70913 6.71136 6.7136  6.71584 6.71808
 6.72032 6.72256 6.7248  6.72704 6.72928 6.73153 6.73377 6.73602 6.73826
 6.74051 6.74275 6.745   6.74725 6.7495  6.75175 6.754   6.75625 6.75851
 6.76076 6.76301 6.76527 6.76752 6.76978 6.77204 6.77429 6.77655 6.77881
 6.78107 6.78333 6.78559 6.78786 6.79012 6.79238 6.79465 6.79691 6.79918
 6.80145 6.80371 6.80598 6.80825 6.81052 6.81279 6.81506 6.81733 6.81961
 6.82188 6.82415 6.82643 6.82871 6.83098 6.83326 6.83554 6.83782 6.8401
 6.84238 6.84466 6.84694 6.84922 6.85151 6.85379 6.85608 6.85836 6.86065
 6.86294 6.86522 6.86751 6.8698  6.87209 6.87438 6.87667 6.87897 6.88126
 6.88355 6.88585 6.88815 6.89044 6.89274 6.89504 6.89734 6.89964 6.90194
 6.90424 6.90654 6.90884 6.91114 6.91345 6.91575 6.91806 6.92036 6.92267
 6.92498 6.92729 6.9296  6.93191 6.93422 6.93653 6.93884 6.94116 6.94347
 6.94579 6.9481  6.95042 6.95274 6.95505 6.95737 6.95969 6.96201 6.96433
 6.96665 6.96898 6.9713  6.97363 6.97595 6.97828 6.9806  6.98293 6.98526
 6.98759 6.98992 6.99225 6.99458 6.99691 6.99924 7.00022 7.00158 7.00256
 7.00391 7.00489 7.00624 7.00723 7.00858 7.00956 7.01092 7.0119  7.01325
 7.01424 7.01559 7.01657 7.01793 7.01891 7.02027 7.02125 7.02261 7.02359
 7.02495 7.02594 7.0273  7.02828 7.02964 7.03062 7.03198 7.03297 7.03433
 7.03531 7.03667 7.03766 7.03902 7.04    7.04136 7.04235 7.04371 7.0447
 7.04606 7.04705 7.04841 7.0494  7.05175 7.0541  7.05645 7.0588  7.06115
 7.06351 7.06586 7.06822 7.07057 7.07293 7.07529 7.07765 7.08001 7.08237
 7.08473 7.08709 7.08946 7.09182 7.09418 7.09655 7.09891 7.10128 7.10365
 7.10602 7.10839 7.11076 7.11313 7.1155  7.11787 7.12024 7.12262 7.12499
 7.12737 7.12974 7.13212 7.1345  7.13688 7.13926 7.14164 7.14402 7.1464
 7.14878 7.15116 7.15355 7.15593 7.15832 7.16071 7.16309 7.16548 7.16787
 7.17026 7.17265 7.17504 7.17743 7.17983 7.18222 7.18461 7.18701 7.18941
 7.1918  7.1942  7.1966  7.199   7.2014  7.2038  7.2062  7.2086  7.21101
 7.21341 7.21582 7.21822 7.22063 7.22303 7.22544 7.22785 7.23026 7.23267
 7.23508 7.23749 7.23991 7.24232 7.24474 7.24715 7.24957 7.25198 7.2544
 7.25682 7.25924 7.26166 7.26408 7.2665  7.26893 7.27135 7.27377 7.2762
 7.27862 7.28105 7.28348 7.28591 7.28833 7.29076 7.2932  7.29563 7.29806
 7.30049 7.30293 7.30536 7.3078  7.31023 7.31267 7.31511 7.31755 7.31999
 7.32243 7.32487 7.32731 7.32975 7.3322  7.33464 7.33709 7.33953 7.34198
 7.34443 7.34688 7.34933 7.35178 7.35423 7.35668 7.35913 7.36158 7.36404
 7.36649 7.36895 7.37141 7.37386 7.37632 7.37878 7.38124 7.3837  7.38616
 7.38863 7.39109 7.39355 7.39602 7.39848 7.40095 7.40342 7.40589 7.40836
 7.41083 7.4133  7.41577 7.41824 7.42071 7.42319 7.42566 7.42814 7.43061
 7.43309 7.43557 7.43805 7.44053 7.44301 7.44549 7.44797 7.45046 7.45294
 7.45542 7.45791 7.4604  7.46288 7.46537 7.46786 7.47035 7.47284 7.47533
 7.47782 7.48032 7.48281 7.48531 7.4878  7.4903  7.49279 7.49529 7.49779
 7.50029 7.50279 7.50529 7.50779 7.5103  7.5128  7.51531 7.51781 7.52032
 7.52283 7.52533 7.52784 7.53035 7.53286 7.53537 7.53789 7.5404  7.54291
 7.54543 7.54794 7.55046 7.55298 7.5555  7.55801 7.56053 7.56305 7.56558
 7.5681  7.57062 7.57315 7.57567 7.5782  7.58072 7.58325 7.58578 7.58831
 7.59084 7.59337 7.5959  7.59843 7.60096 7.6035  7.60603 7.60857 7.61111
 7.61364 7.61618 7.61872 7.62126 7.6238  7.62634 7.62889 7.63143 7.63397
 7.63652 7.63906 7.64161 7.64416 7.64671 7.64926]
[1.20992146e-16 1.27036273e-16 1.33351731e-16 1.39980444e-16
 1.46874306e-16 1.54075125e-16 1.61630995e-16 1.69487514e-16
 1.77731030e-16 1.86302729e-16 1.95297498e-16 2.04695457e-16
 2.14516201e-16 2.24780858e-16 2.35512278e-16 2.46735249e-16
 2.58476742e-16 2.70766186e-16 2.83635776e-16 2.97183299e-16
 3.11325667e-16 3.26234047e-16 3.41821486e-16 3.58281695e-16
 3.75604336e-16 3.93854166e-16 4.13102953e-16 4.33336167e-16
 4.54824814e-16 4.77683167e-16 5.01815106e-16 5.27440451e-16
 5.54692364e-16 5.83853198e-16 6.14824963e-16 6.48068402e-16
 6.83484614e-16 7.21613465e-16 7.62544578e-16 8.06545676e-16
 8.53910283e-16 9.04959624e-16 9.60044553e-16 1.01954752e-15
 1.08388450e-15 1.15383185e-15 1.22925584e-15 1.31098490e-15
 1.40000209e-15 1.49657595e-15 1.60088469e-15 1.71457266e-15
 1.83794972e-15 1.97182270e-15 2.11704703e-15 2.27452683e-15
 2.44521456e-15 2.63011021e-15 2.83026003e-15 3.04775943e-15
 3.28181183e-15 3.53568965e-15 3.80834692e-15 4.10346657e-15
 4.41969143e-15 4.76113752e-15 5.12775344e-15 5.52085237e-15
 5.94174262e-15 6.39171793e-15 6.87204698e-15 7.38630961e-15
 7.93114313e-15 8.50987456e-15 9.12635903e-15 9.77610407e-15
 1.04657502e-14 1.11932394e-14 1.19557114e-14 1.27604071e-14
 1.36043235e-14 1.44875814e-14 1.54101076e-14 1.63716211e-14
 1.73761294e-14 1.84140448e-14 1.94887291e-14 2.06039405e-14
 2.17483562e-14 2.29303283e-14 2.41428117e-14 2.53779506e-14
 2.66440774e-14 2.79329075e-14 2.92412940e-14 3.05658309e-14
 3.19028643e-14 3.32485059e-14 3.46046006e-14 3.59549311e-14
 3.73009546e-14 3.86438975e-14 3.99729896e-14 4.12776044e-14
 4.25642577e-14 4.38221242e-14 4.50461682e-14 4.62313866e-14
 4.73728451e-14 4.84657144e-14 4.95053064e-14 5.04871107e-14
 5.14107200e-14 5.22640022e-14 5.30506355e-14 5.37602767e-14
 5.43959999e-14 5.49517363e-14 5.54232028e-14 5.58125578e-14
 5.61159973e-14 5.63324110e-14 5.64611418e-14 5.65019912e-14
 5.64548250e-14 5.63207753e-14 5.61009985e-14 5.57955961e-14
 5.54074036e-14 5.49411045e-14 5.43954840e-14 5.37756397e-14
 5.30851447e-14 5.23278802e-14 5.15080029e-14 5.06299103e-14
 4.96982044e-14 4.87176551e-14 4.76931618e-14 4.66250148e-14
 4.55275262e-14 4.43962635e-14 4.32460832e-14 4.20720205e-14
 4.08839945e-14 3.96868508e-14 3.84852851e-14 3.72838151e-14
 3.60867568e-14 3.48982023e-14 3.37220011e-14 3.25567612e-14
 3.14158587e-14 3.02924820e-14 2.91990740e-14 2.81286473e-14
 2.70881824e-14 2.60838497e-14 2.51085493e-14 2.41680144e-14
 2.32632823e-14 2.23951222e-14 2.15640477e-14 2.07669898e-14
 2.00108334e-14 1.92888886e-14 1.86069858e-14 1.79586969e-14
 1.73488781e-14 1.67714138e-14 1.62280192e-14 1.57175928e-14
 1.52389385e-14 1.47907820e-14 1.43717864e-14 1.39805675e-14
 1.36157070e-14 1.34697747e-14 1.32743592e-14 1.31385179e-14
 1.29579893e-14 1.28315861e-14 1.26636417e-14 1.25448910e-14
 1.23887521e-14 1.22794543e-14 1.21332017e-14 1.20315859e-14
 1.18965715e-14 1.18010833e-14 1.16754735e-14 1.15874869e-14
 1.14696422e-14 1.13876689e-14 1.12778070e-14 1.12013303e-14
 1.10987496e-14 1.10272754e-14 1.09313068e-14 1.08636913e-14
 1.07737239e-14 1.07108859e-14 1.06262924e-14 1.05671198e-14
 1.04873350e-14 1.04308695e-14 1.03553808e-14 1.03023925e-14
 1.02306860e-14 1.01797447e-14 1.01113739e-14 1.00631886e-14
 9.99771267e-15 9.95100082e-15 9.88803726e-15 9.84301894e-15
 9.78220435e-15 9.73862654e-15 9.67962880e-15 9.63726075e-15
 9.53840989e-15 9.44161093e-15 9.34644700e-15 9.25254466e-15
 9.15957132e-15 9.06684056e-15 8.97487850e-15 8.88267460e-15
 8.79081427e-15 8.69834703e-15 8.60552034e-15 8.51221495e-15
 8.41833337e-15 8.32379790e-15 8.22854871e-15 8.13254209e-15
 8.03533693e-15 7.93773718e-15 7.83932960e-15 7.73969758e-15
 7.63969641e-15 7.53850127e-15 7.43656394e-15 7.33392024e-15
 7.23061129e-15 7.12668269e-15 7.02218386e-15 6.91716742e-15
 6.81168864e-15 6.70580489e-15 6.59912641e-15 6.49261022e-15
 6.38541931e-15 6.27851655e-15 6.17106259e-15 6.06357125e-15
 5.95610540e-15 5.84872753e-15 5.74149956e-15 5.63448267e-15
 5.52773717e-15 5.42132235e-15 5.31529638e-15 5.20927360e-15
 5.10419705e-15 4.99923845e-15 4.89489380e-15 4.79164731e-15
 4.68868144e-15 4.58648004e-15 4.48509001e-15 4.38455651e-15
 4.28492297e-15 4.18623101e-15 4.08811375e-15 3.99142696e-15
 3.89579592e-15 3.80086174e-15 3.70705970e-15 3.61480439e-15
 3.52335290e-15 3.43312101e-15 3.34413423e-15 3.25641624e-15
 3.16998890e-15 3.08487229e-15 3.00108471e-15 2.91830205e-15
 2.83722619e-15 2.75719476e-15 2.67888345e-15 2.60164958e-15
 2.52614238e-15 2.45173938e-15 2.37876335e-15 2.30721801e-15
 2.23710560e-15 2.16842694e-15 2.10118147e-15 2.03509716e-15
 1.97071696e-15 1.90750206e-15 1.84596923e-15 1.78560090e-15
 1.72688801e-15 1.66933419e-15 1.61317581e-15 1.55840169e-15
 1.50499971e-15 1.45295686e-15 1.40225928e-15 1.35269103e-15
 1.30464461e-15 1.25789716e-15 1.21224664e-15 1.16805129e-15
 1.12492770e-15 1.08304236e-15 1.04237600e-15 1.00306892e-15
 9.64776208e-16 9.27491817e-16 8.91500472e-16 8.56625899e-16
 8.22846745e-16 7.90009044e-16 7.58360140e-16 7.27617467e-16
 6.98010943e-16 6.69274625e-16 6.41510027e-16 6.14694745e-16
 5.88806390e-16 5.63822613e-16 5.39721138e-16 5.16479784e-16
 4.94076489e-16 4.72402514e-16 4.51612963e-16 4.31515673e-16
 4.12253271e-16 3.93646549e-16 3.75754831e-16 3.58557230e-16
 3.42033136e-16 3.26162231e-16 3.10924498e-16 2.96300239e-16
 2.82270081e-16 2.68814990e-16 2.55864741e-16 2.43506222e-16
 2.31620411e-16 2.20241016e-16 2.09393890e-16 1.98973475e-16
 1.89008341e-16 1.79482192e-16 1.70379118e-16 1.61683602e-16
 1.53347543e-16 1.45423655e-16 1.37863054e-16 1.30623164e-16
 1.23748990e-16 1.17171342e-16 1.10905880e-16 1.04940024e-16
 9.92615772e-17 9.38587154e-17 8.87199857e-17 8.38343002e-17
 7.91909307e-17 7.47795028e-17 7.05734666e-17 6.65970251e-17
 6.28085503e-17 5.92295456e-17 5.58222586e-17 5.25930845e-17
 4.95338532e-17 4.66367006e-17 4.38940603e-17 4.12986570e-17
 3.88434981e-17 3.65127674e-17 3.43187157e-17 3.22455314e-17
 3.02796095e-17 2.84237936e-17 2.66794002e-17 2.50270989e-17
 2.34690763e-17 2.20004987e-17 2.06167447e-17 1.93133984e-17
 1.80862423e-17 1.69267521e-17 1.58403496e-17 1.48146137e-17
 1.38542474e-17 1.29481819e-17 1.21004879e-17 1.13013160e-17
 1.05512762e-17 9.84760927e-18 9.18769280e-18 8.56903592e-18
 7.98927374e-18 7.44406027e-18 6.93560419e-18 6.45780246e-18
 6.01254385e-18 5.59443960e-18 5.20359586e-18 4.83977733e-18
 4.49852593e-18 4.17987903e-18 3.88244967e-18 3.60492798e-18
 3.34508193e-18 3.10380329e-18 2.87892437e-18 2.66860269e-18
 2.47352701e-18 2.29121468e-18 2.12159429e-18 1.96384099e-18
 1.81774014e-18 1.68140078e-18 1.55474124e-18 1.43666840e-18
 1.32750958e-18 1.22621386e-18 1.13189073e-18 1.04478591e-18
 9.63737215e-19 8.88946630e-19 8.19407713e-19 7.55041152e-19
 6.95484431e-19 6.40398665e-19 5.89467193e-19 5.42394248e-19
 4.98903702e-19 4.58737870e-19 4.21515630e-19 3.87305240e-19
 3.55625641e-19 3.26420750e-19 2.99609016e-19 2.74808509e-19
 2.51970947e-19 2.30948826e-19 2.11605059e-19 1.93812299e-19
 1.77390567e-19 1.62358561e-19 1.48547333e-19 1.35814643e-19
 1.24172564e-19 1.13447661e-19 1.03611801e-19 9.45946707e-20
 8.63312228e-20]

Integrated fluxes of aliphatic features
6.9 micron feature 6.853331377381268e-15
7.2 micron feature 3.3651364387615877e-15
S/N of 6.9: 0.3300462191226381
S/N of 7.2: 0.10335193074514867

Section 2: 7.7 micron complex
Gaussian fitting parameters for 7.7 micron complex
[4.85120632e-14 7.90000000e+00 5.07364439e-02 1.14008487e-13
 8.20000000e+00 2.11732797e-01 3.41388141e-13 8.10000000e+00
 1.92155658e-01 8.63829619e-14 8.55887222e+00 2.82606899e-01]
Errors on fitting parameters
[7.91196352e-15 0.00000000e+00 1.00887544e-02 3.01868422e-14
 0.00000000e+00 3.93945365e-02 3.65460557e-14 0.00000000e+00
 7.64754062e-03 1.47895678e-14 0.00000000e+00 5.04009332e-02]
Fit model - 7.7 micron complex
[7.10128 7.10365 7.10602 7.10839 7.11076 7.11313 7.1155  7.11787 7.12024
 7.12262 7.12499 7.12737 7.12974 7.13212 7.1345  7.13688 7.13926 7.14164
 7.14402 7.1464  7.14878 7.15116 7.15355 7.15593 7.15832 7.16071 7.16309
 7.16548 7.16787 7.17026 7.17265 7.17504 7.17743 7.17983 7.18222 7.18461
 7.18701 7.18941 7.1918  7.1942  7.1966  7.199   7.2014  7.2038  7.2062
 7.2086  7.21101 7.21341 7.21582 7.21822 7.22063 7.22303 7.22544 7.22785
 7.23026 7.23267 7.23508 7.23749 7.23991 7.24232 7.24474 7.24715 7.24957
 7.25198 7.2544  7.25682 7.25924 7.26166 7.26408 7.2665  7.26893 7.27135
 7.27377 7.2762  7.27862 7.28105 7.28348 7.28591 7.28833 7.29076 7.2932
 7.29563 7.29806 7.30049 7.30293 7.30536 7.3078  7.31023 7.31267 7.31511
 7.31755 7.31999 7.32243 7.32487 7.32731 7.32975 7.3322  7.33464 7.33709
 7.33953 7.34198 7.34443 7.34688 7.34933 7.35178 7.35423 7.35668 7.35913
 7.36158 7.36404 7.36649 7.36895 7.37141 7.37386 7.37632 7.37878 7.38124
 7.3837  7.38616 7.38863 7.39109 7.39355 7.39602 7.39848 7.40095 7.40342
 7.40589 7.40836 7.41083 7.4133  7.41577 7.41824 7.42071 7.42319 7.42566
 7.42814 7.43061 7.43309 7.43557 7.43805 7.44053 7.44301 7.44549 7.44797
 7.45046 7.45294 7.45542 7.45791 7.4604  7.46288 7.46537 7.46786 7.47035
 7.47284 7.47533 7.47782 7.48032 7.48281 7.48531 7.4878  7.4903  7.49279
 7.49529 7.49779 7.50029 7.50279 7.50529 7.50779 7.5103  7.5128  7.51531
 7.51781 7.52032 7.52283 7.52533 7.52784 7.53035 7.53286 7.53537 7.53789
 7.5404  7.54291 7.54543 7.54794 7.55046 7.55298 7.5555  7.55801 7.56053
 7.56305 7.56558 7.5681  7.57062 7.57315 7.57567 7.5782  7.58072 7.58325
 7.58578 7.58831 7.59084 7.59337 7.5959  7.59843 7.60096 7.6035  7.60603
 7.60857 7.61111 7.61364 7.61618 7.61872 7.62126 7.6238  7.62634 7.62889
 7.63143 7.63397 7.63652 7.63906 7.64161 7.64416 7.64671 7.64926 7.65181
 7.65436 7.65691 7.65946 7.66202 7.66457 7.66713 7.66968 7.67224 7.6748
 7.67736 7.67991 7.68248 7.68504 7.6876  7.69016 7.69273 7.69529 7.69786
 7.70042 7.70299 7.70556 7.70813 7.7107  7.71327 7.71584 7.71841 7.72098
 7.72356 7.72613 7.72871 7.73129 7.73386 7.73644 7.73902 7.7416  7.74418
 7.74676 7.74935 7.75193 7.75451 7.7571  7.75969 7.76227 7.76486 7.76745
 7.77004 7.77263 7.77522 7.77781 7.78041 7.783   7.78559 7.78819 7.79079
 7.79338 7.79598 7.79858 7.80118 7.80378 7.80638 7.80899 7.81159 7.81419
 7.8168  7.81941 7.82201 7.82462 7.82723 7.82984 7.83245 7.83506 7.83767
 7.84028 7.8429  7.84551 7.84813 7.85075 7.85336 7.85598 7.8586  7.86122
 7.86384 7.86646 7.86908 7.87171 7.87433 7.87696 7.87958 7.88221 7.88484
 7.88747 7.8901  7.89273 7.89536 7.89799 7.90062 7.90326 7.90589 7.90853
 7.91117 7.9138  7.91644 7.91908 7.92172 7.92436 7.927   7.92965 7.93229
 7.93493 7.93758 7.94023 7.94287 7.94552 7.94817 7.95082 7.95347 7.95612
 7.95878 7.96143 7.96408 7.96674 7.96939 7.97205 7.97471 7.97737 7.98003
 7.98269 7.98535 7.98801 7.99067 7.99334 7.996   7.99867 8.00134 8.004
 8.00667 8.00934 8.01201 8.01468 8.01735 8.02003 8.0227  8.02538 8.02805
 8.03073 8.03341 8.03608 8.03876 8.04144 8.04412 8.04681 8.04949 8.05217
 8.05486 8.05754 8.06023 8.06291 8.0656  8.06829 8.07098 8.07367 8.07636
 8.07906 8.08175 8.08444 8.08714 8.08984 8.09253 8.09523 8.09793 8.10063
 8.10333 8.10603 8.10873 8.11144 8.11414 8.11685 8.11955 8.12226 8.12497
 8.12768 8.13039 8.1331  8.13581 8.13852 8.14123 8.14395 8.14666 8.14938
 8.1521  8.15481 8.15753 8.16025 8.16297 8.16569 8.16842 8.17114 8.17386
 8.17659 8.17932 8.18204 8.18477 8.1875  8.19023 8.19296 8.19569 8.19842
 8.20116 8.20389 8.20662 8.20936 8.2121  8.21484 8.21758 8.22031 8.22305
 8.2258  8.22854 8.23128 8.23403 8.23677 8.23952 8.24226 8.24501 8.24776
 8.25051 8.25326 8.25601 8.25877 8.26152 8.26427 8.26703 8.26978 8.27254
 8.2753  8.27806 8.28082 8.28358 8.28634 8.2891  8.29187 8.29463 8.2974
 8.30016 8.30293 8.3057  8.30847 8.31124 8.31401 8.31678 8.31955 8.32233
 8.3251  8.32788 8.33065 8.33343 8.33621 8.33899 8.34177 8.34455 8.34733
 8.35011 8.3529  8.35568 8.35847 8.36125 8.36404 8.36683 8.36962 8.37241
 8.3752  8.37799 8.38079 8.38358 8.38638 8.38917 8.39197 8.39477 8.39756
 8.40036 8.40317 8.40597 8.40877 8.41157 8.41438 8.41718 8.41999 8.4228
 8.4256  8.42841 8.43122 8.43403 8.43685 8.43966 8.44247 8.44529 8.4481
 8.45092 8.45374 8.45655 8.45937 8.46219 8.46502 8.46784 8.47066 8.47348
 8.47631 8.47914 8.48196 8.48479 8.48762 8.49045 8.49328 8.49611 8.49894
 8.50178 8.50461 8.50745 8.51028 8.51312 8.51596 8.5188  8.52164 8.52448
 8.52732 8.53016 8.53301 8.53585 8.5387  8.54154 8.54439 8.54724 8.55009
 8.55294 8.55579 8.55864 8.5615  8.56435 8.56721 8.57006 8.57292 8.57578
 8.57864 8.5815  8.58436 8.58722 8.59008 8.59295 8.59581 8.59868 8.60154
 8.60441 8.60728 8.61015 8.61302 8.61589 8.61876 8.62164 8.62451 8.62739
 8.63026 8.63314 8.63602 8.6389  8.64178 8.64466 8.64754 8.65042 8.65331
 8.65619 8.65908 8.66197 8.66485 8.66774 8.67063 8.67352 8.67642 8.67931
 8.6822  8.6851  8.68799 8.69089 8.69379 8.69668 8.69958 8.70248 8.70539
 8.70829 8.71119 8.7141  8.717   8.71991 8.72281 8.72572 8.72863 8.73154
 8.73445 8.73736 8.74028 8.74319 8.74611 8.74902 8.75194 8.75486 8.75777
 8.76069 8.76361 8.76654 8.76946 8.77238 8.77531 8.77823 8.78116 8.78409
 8.78702 8.78994 8.79288 8.79581 8.79874 8.80167 8.80461 8.80754 8.81048
 8.81342 8.81635 8.81929 8.82223 8.82518 8.82812 8.83106 8.83401 8.83695
 8.8399  8.84284 8.84579 8.84874 8.85169 8.85464 8.85759 8.86055 8.8635
 8.86646 8.86941 8.87237 8.87533 8.87829 8.88125 8.88421 8.88717 8.89013
 8.8931  8.89606 8.89903]
[7.71475825e-19 8.18279357e-19 8.67861417e-19 9.20381953e-19
 9.76009755e-19 1.03492291e-18 1.09730931e-18 1.16336714e-18
 1.23330542e-18 1.30766598e-18 1.38605720e-18 1.46938792e-18
 1.55721713e-18 1.65056082e-18 1.74934947e-18 1.85388935e-18
 1.96450319e-18 2.08153099e-18 2.20533090e-18 2.33628014e-18
 2.47477592e-18 2.62123649e-18 2.77677122e-18 2.94054370e-18
 3.11442246e-18 3.29825835e-18 3.49176264e-18 3.69713501e-18
 3.91419022e-18 4.14356508e-18 4.38592931e-18 4.64198713e-18
 4.91247889e-18 5.19941133e-18 5.50121421e-18 5.81991036e-18
 6.15784964e-18 6.51469557e-18 6.88984498e-18 7.28749369e-18
 7.70722751e-18 8.15021537e-18 8.61768450e-18 9.11092305e-18
 9.63128296e-18 1.01801828e-17 1.07615882e-17 1.13722408e-17
 1.20188820e-17 1.26978690e-17 1.34166772e-17 1.41712358e-17
 1.49698298e-17 1.58114973e-17 1.66984389e-17 1.76329604e-17
 1.86174770e-17 1.96545188e-17 2.07513855e-17 2.19017960e-17
 2.31182276e-17 2.43936778e-17 2.57419414e-17 2.71552166e-17
 2.86487462e-17 3.02205037e-17 3.18743474e-17 3.36143118e-17
 3.54446154e-17 3.73696677e-17 3.94026557e-17 4.15316803e-17
 4.37699317e-17 4.61326343e-17 4.86058521e-17 5.12158108e-17
 5.39586053e-17 5.68405643e-17 5.98555263e-17 6.30352782e-17
 6.63889422e-17 6.98965592e-17 7.35793674e-17 7.74455300e-17
 8.15206664e-17 8.57802779e-17 9.02687545e-17 9.49589774e-17
 9.98996822e-17 1.05082620e-16 1.10518824e-16 1.16219784e-16
 1.22197464e-16 1.28464318e-16 1.35033309e-16 1.41917927e-16
 1.49162470e-16 1.56722450e-16 1.64675153e-16 1.72971506e-16
 1.81696073e-16 1.90832912e-16 2.00399980e-16 2.10415934e-16
 2.20900158e-16 2.31872786e-16 2.43354730e-16 2.55367698e-16
 2.67934227e-16 2.81132571e-16 2.94879780e-16 3.09313485e-16
 3.24405265e-16 3.40116987e-16 3.56605252e-16 3.73836821e-16
 3.91842251e-16 4.10653206e-16 4.30302495e-16 4.50909348e-16
 4.72342225e-16 4.94719203e-16 5.18175020e-16 5.42558934e-16
 5.68109951e-16 5.94773380e-16 6.22592996e-16 6.51614071e-16
 6.81883416e-16 7.13449420e-16 7.46362096e-16 7.80673121e-16
 8.16435878e-16 8.53859534e-16 8.92699416e-16 9.33329317e-16
 9.75482457e-16 1.01956332e-15 1.06547011e-15 1.11327026e-15
 1.16303334e-15 1.21483108e-15 1.26873740e-15 1.32482851e-15
 1.38342289e-15 1.44413105e-15 1.50726699e-15 1.57318639e-15
 1.64172898e-15 1.71269499e-15 1.78675104e-15 1.86371383e-15
 1.94368344e-15 2.02676280e-15 2.11305773e-15 2.20267695e-15
 2.29611297e-15 2.39273344e-15 2.49343333e-15 2.59752843e-15
 2.70598013e-15 2.81804870e-15 2.93476618e-15 3.05582645e-15
 3.18136871e-15 3.31153561e-15 3.44647339e-15 3.58633187e-15
