crl2688_SWS_CWsubFitting and integrated flux data

Section 1: Aliphatic features
Gaussian fitting parameters for 6.9 and 7.2 micron features
[5.00000000e-14 6.87390815e+00 5.46816877e-02 1.00000000e-14
 7.00000000e+00 1.34448561e-01]
Errors on aliphatic fitting parameters
[0.         0.00756286 0.00698641 0.         0.         0.04674106]
Fit model - aliphatic features
[6.60043 6.60263 6.60483 6.60704 6.60924 6.61144 6.61365 6.61585 6.61806
 6.62026 6.62247 6.62468 6.62689 6.6291  6.63131 6.63352 6.63573 6.63794
 6.64015 6.64237 6.64458 6.6468  6.64901 6.65123 6.65345 6.65567 6.65789
 6.6601  6.66232 6.66455 6.66677 6.66899 6.67121 6.67344 6.67566 6.67789
 6.68011 6.68234 6.68457 6.6868  6.68903 6.69126 6.69349 6.69572 6.69795
 6.70019 6.70242 6.70465 6.70689 6.70913 6.71136 6.7136  6.71584 6.71808
 6.72032 6.72256 6.7248  6.72704 6.72928 6.73153 6.73377 6.73602 6.73826
 6.74051 6.74275 6.745   6.74725 6.7495  6.75175 6.754   6.75625 6.75851
 6.76076 6.76301 6.76527 6.76752 6.76978 6.77204 6.77429 6.77655 6.77881
 6.78107 6.78333 6.78559 6.78786 6.79012 6.79238 6.79465 6.79691 6.79918
 6.80145 6.80371 6.80598 6.80825 6.81052 6.81279 6.81506 6.81733 6.81961
 6.82188 6.82415 6.82643 6.82871 6.83098 6.83326 6.83554 6.83782 6.8401
 6.84238 6.84466 6.84694 6.84922 6.85151 6.85379 6.85608 6.85836 6.86065
 6.86294 6.86522 6.86751 6.8698  6.87209 6.87438 6.87667 6.87897 6.88126
 6.88355 6.88585 6.88815 6.89044 6.89274 6.89504 6.89734 6.89964 6.90194
 6.90424 6.90654 6.90884 6.91114 6.91345 6.91575 6.91806 6.92036 6.92267
 6.92498 6.92729 6.9296  6.93191 6.93422 6.93653 6.93884 6.94116 6.94347
 6.94579 6.9481  6.95042 6.95274 6.95505 6.95737 6.95969 6.96201 6.96433
 6.96665 6.96898 6.9713  6.97363 6.97595 6.97828 6.9806  6.98293 6.98526
 6.98759 6.98992 6.99225 6.99458 6.99691 6.99924 7.00022 7.00158 7.00256
 7.00391 7.00489 7.00624 7.00723 7.00858 7.00956 7.01092 7.0119  7.01325
 7.01424 7.01559 7.01657 7.01793 7.01891 7.02027 7.02125 7.02261 7.02359
 7.02495 7.02594 7.0273  7.02828 7.02964 7.03062 7.03198 7.03297 7.03433
 7.03531 7.03667 7.03766 7.03902 7.04    7.04136 7.04235 7.04371 7.0447
 7.04606 7.04705 7.04841 7.0494  7.05175 7.0541  7.05645 7.0588  7.06115
 7.06351 7.06586 7.06822 7.07057 7.07293 7.07529 7.07765 7.08001 7.08237
 7.08473 7.08709 7.08946 7.09182 7.09418 7.09655 7.09891 7.10128 7.10365
 7.10602 7.10839 7.11076 7.11313 7.1155  7.11787 7.12024 7.12262 7.12499
 7.12737 7.12974 7.13212 7.1345  7.13688 7.13926 7.14164 7.14402 7.1464
 7.14878 7.15116 7.15355 7.15593 7.15832 7.16071 7.16309 7.16548 7.16787
 7.17026 7.17265 7.17504 7.17743 7.17983 7.18222 7.18461 7.18701 7.18941
 7.1918  7.1942  7.1966  7.199   7.2014  7.2038  7.2062  7.2086  7.21101
 7.21341 7.21582 7.21822 7.22063 7.22303 7.22544 7.22785 7.23026 7.23267
 7.23508 7.23749 7.23991 7.24232 7.24474 7.24715 7.24957 7.25198 7.2544
 7.25682 7.25924 7.26166 7.26408 7.2665  7.26893 7.27135 7.27377 7.2762
 7.27862 7.28105 7.28348 7.28591 7.28833 7.29076 7.2932  7.29563 7.29806
 7.30049 7.30293 7.30536 7.3078  7.31023 7.31267 7.31511 7.31755 7.31999
 7.32243 7.32487 7.32731 7.32975 7.3322  7.33464 7.33709 7.33953 7.34198
 7.34443 7.34688 7.34933 7.35178 7.35423 7.35668 7.35913 7.36158 7.36404
 7.36649 7.36895 7.37141 7.37386 7.37632 7.37878 7.38124 7.3837  7.38616
 7.38863 7.39109 7.39355 7.39602 7.39848 7.40095 7.40342 7.40589 7.40836
 7.41083 7.4133  7.41577 7.41824 7.42071 7.42319 7.42566 7.42814 7.43061
 7.43309 7.43557 7.43805 7.44053 7.44301 7.44549 7.44797 7.45046 7.45294
 7.45542 7.45791 7.4604  7.46288 7.46537 7.46786 7.47035 7.47284 7.47533
 7.47782 7.48032 7.48281 7.48531 7.4878  7.4903  7.49279 7.49529 7.49779
 7.50029 7.50279 7.50529 7.50779 7.5103  7.5128  7.51531 7.51781 7.52032
 7.52283 7.52533 7.52784 7.53035 7.53286 7.53537 7.53789 7.5404  7.54291
 7.54543 7.54794 7.55046 7.55298 7.5555  7.55801 7.56053 7.56305 7.56558
 7.5681  7.57062 7.57315 7.57567 7.5782  7.58072 7.58325 7.58578 7.58831
 7.59084 7.59337 7.5959  7.59843 7.60096 7.6035  7.60603 7.60857 7.61111
 7.61364 7.61618 7.61872 7.62126 7.6238  7.62634 7.62889 7.63143 7.63397
 7.63652 7.63906 7.64161 7.64416 7.64671 7.64926]
[1.20992152e-16 1.27036279e-16 1.33351737e-16 1.39980450e-16
 1.46874312e-16 1.54075131e-16 1.61631002e-16 1.69487521e-16
 1.77731037e-16 1.86302736e-16 1.95297506e-16 2.04695464e-16
 2.14516208e-16 2.24780865e-16 2.35512286e-16 2.46735257e-16
 2.58476749e-16 2.70766192e-16 2.83635783e-16 2.97183305e-16
 3.11325673e-16 3.26234052e-16 3.41821490e-16 3.58281698e-16
 3.75604339e-16 3.93854167e-16 4.13102953e-16 4.33336165e-16
 4.54824810e-16 4.77683161e-16 5.01815097e-16 5.27440439e-16
 5.54692348e-16 5.83853178e-16 6.14824939e-16 6.48068373e-16
 6.83484580e-16 7.21613424e-16 7.62544530e-16 8.06545620e-16
 8.53910219e-16 9.04959549e-16 9.60044468e-16 1.01954742e-15
 1.08388439e-15 1.15383173e-15 1.22925571e-15 1.31098474e-15
 1.40000192e-15 1.49657576e-15 1.60088447e-15 1.71457242e-15
 1.83794945e-15 1.97182241e-15 2.11704671e-15 2.27452648e-15
 2.44521417e-15 2.63010979e-15 2.83025958e-15 3.04775894e-15
 3.28181130e-15 3.53568908e-15 3.80834630e-15 4.10346591e-15
 4.41969073e-15 4.76113676e-15 5.12775263e-15 5.52085152e-15
 5.94174172e-15 6.39171697e-15 6.87204597e-15 7.38630856e-15
 7.93114202e-15 8.50987340e-15 9.12635781e-15 9.77610281e-15
 1.04657489e-14 1.11932380e-14 1.19557100e-14 1.27604056e-14
 1.36043220e-14 1.44875799e-14 1.54101061e-14 1.63716195e-14
 1.73761278e-14 1.84140431e-14 1.94887274e-14 2.06039389e-14
 2.17483545e-14 2.29303267e-14 2.41428101e-14 2.53779490e-14
 2.66440758e-14 2.79329059e-14 2.92412924e-14 3.05658294e-14
 3.19028629e-14 3.32485045e-14 3.46045992e-14 3.59549298e-14
 3.73009534e-14 3.86438963e-14 3.99729885e-14 4.12776033e-14
 4.25642567e-14 4.38221233e-14 4.50461674e-14 4.62313859e-14
 4.73728445e-14 4.84657138e-14 4.95053060e-14 5.04871102e-14
 5.14107196e-14 5.22640020e-14 5.30506353e-14 5.37602765e-14
 5.43959998e-14 5.49517362e-14 5.54232028e-14 5.58125578e-14
 5.61159973e-14 5.63324110e-14 5.64611419e-14 5.65019912e-14
 5.64548250e-14 5.63207753e-14 5.61009985e-14 5.57955961e-14
 5.54074035e-14 5.49411043e-14 5.43954838e-14 5.37756394e-14
 5.30851443e-14 5.23278798e-14 5.15080024e-14 5.06299097e-14
 4.96982038e-14 4.87176544e-14 4.76931611e-14 4.66250140e-14
 4.55275253e-14 4.43962625e-14 4.32460821e-14 4.20720194e-14
 4.08839933e-14 3.96868496e-14 3.84852837e-14 3.72838137e-14
 3.60867554e-14 3.48982009e-14 3.37219996e-14 3.25567596e-14
 3.14158572e-14 3.02924804e-14 2.91990724e-14 2.81286457e-14
 2.70881808e-14 2.60838481e-14 2.51085477e-14 2.41680129e-14
 2.32632807e-14 2.23951207e-14 2.15640462e-14 2.07669884e-14
 2.00108319e-14 1.92888872e-14 1.86069845e-14 1.79586956e-14
 1.73488768e-14 1.67714126e-14 1.62280181e-14 1.57175917e-14
 1.52389374e-14 1.47907810e-14 1.43717855e-14 1.39805666e-14
 1.36157062e-14 1.34697739e-14 1.32743584e-14 1.31385171e-14
 1.29579885e-14 1.28315854e-14 1.26636410e-14 1.25448903e-14
 1.23887514e-14 1.22794537e-14 1.21332011e-14 1.20315853e-14
 1.18965709e-14 1.18010828e-14 1.16754730e-14 1.15874864e-14
 1.14696417e-14 1.13876685e-14 1.12778066e-14 1.12013299e-14
 1.10987492e-14 1.10272750e-14 1.09313065e-14 1.08636909e-14
 1.07737235e-14 1.07108856e-14 1.06262921e-14 1.05671195e-14
 1.04873347e-14 1.04308692e-14 1.03553805e-14 1.03023923e-14
 1.02306858e-14 1.01797445e-14 1.01113737e-14 1.00631884e-14
 9.99771248e-15 9.95100064e-15 9.88803710e-15 9.84301878e-15
 9.78220421e-15 9.73862640e-15 9.67962867e-15 9.63726063e-15
 9.53840978e-15 9.44161084e-15 9.34644691e-15 9.25254459e-15
 9.15957125e-15 9.06684051e-15 8.97487846e-15 8.88267456e-15
 8.79081424e-15 8.69834700e-15 8.60552033e-15 8.51221494e-15
 8.41833336e-15 8.32379790e-15 8.22854871e-15 8.13254209e-15
 8.03533694e-15 7.93773719e-15 7.83932961e-15 7.73969759e-15
 7.63969643e-15 7.53850129e-15 7.43656395e-15 7.33392026e-15
 7.23061132e-15 7.12668271e-15 7.02218389e-15 6.91716745e-15
 6.81168866e-15 6.70580492e-15 6.59912644e-15 6.49261025e-15
 6.38541934e-15 6.27851658e-15 6.17106262e-15 6.06357128e-15
 5.95610543e-15 5.84872756e-15 5.74149959e-15 5.63448271e-15
 5.52773721e-15 5.42132239e-15 5.31529642e-15 5.20927364e-15
 5.10419709e-15 4.99923849e-15 4.89489383e-15 4.79164735e-15
 4.68868148e-15 4.58648008e-15 4.48509005e-15 4.38455655e-15
 4.28492301e-15 4.18623105e-15 4.08811379e-15 3.99142700e-15
 3.89579596e-15 3.80086178e-15 3.70705974e-15 3.61480443e-15
 3.52335294e-15 3.43312105e-15 3.34413427e-15 3.25641628e-15
 3.16998894e-15 3.08487233e-15 3.00108475e-15 2.91830209e-15
 2.83722623e-15 2.75719480e-15 2.67888348e-15 2.60164962e-15
 2.52614242e-15 2.45173942e-15 2.37876339e-15 2.30721805e-15
 2.23710564e-15 2.16842698e-15 2.10118151e-15 2.03509720e-15
 1.97071699e-15 1.90750210e-15 1.84596926e-15 1.78560094e-15
 1.72688804e-15 1.66933422e-15 1.61317584e-15 1.55840172e-15
 1.50499974e-15 1.45295690e-15 1.40225931e-15 1.35269106e-15
 1.30464464e-15 1.25789719e-15 1.21224666e-15 1.16805131e-15
 1.12492773e-15 1.08304238e-15 1.04237603e-15 1.00306895e-15
 9.64776233e-16 9.27491841e-16 8.91500496e-16 8.56625922e-16
 8.22846768e-16 7.90009066e-16 7.58360162e-16 7.27617488e-16
 6.98010964e-16 6.69274645e-16 6.41510047e-16 6.14694765e-16
 5.88806408e-16 5.63822631e-16 5.39721156e-16 5.16479801e-16
 4.94076506e-16 4.72402530e-16 4.51612979e-16 4.31515688e-16
 4.12253286e-16 3.93646563e-16 3.75754844e-16 3.58557243e-16
 3.42033149e-16 3.26162243e-16 3.10924510e-16 2.96300250e-16
 2.82270093e-16 2.68815001e-16 2.55864751e-16 2.43506232e-16
 2.31620421e-16 2.20241025e-16 2.09393899e-16 1.98973484e-16
 1.89008350e-16 1.79482200e-16 1.70379126e-16 1.61683609e-16
 1.53347551e-16 1.45423662e-16 1.37863061e-16 1.30623170e-16
 1.23748996e-16 1.17171348e-16 1.10905885e-16 1.04940030e-16
 9.92615823e-17 9.38587203e-17 8.87199904e-17 8.38343047e-17
 7.91909350e-17 7.47795069e-17 7.05734705e-17 6.65970288e-17
 6.28085539e-17 5.92295490e-17 5.58222619e-17 5.25930876e-17
 4.95338562e-17 4.66367034e-17 4.38940630e-17 4.12986595e-17
 3.88435005e-17 3.65127696e-17 3.43187179e-17 3.22455335e-17
 3.02796114e-17 2.84237954e-17 2.66794019e-17 2.50271005e-17
 2.34690779e-17 2.20005002e-17 2.06167461e-17 1.93133997e-17
 1.80862436e-17 1.69267533e-17 1.58403507e-17 1.48146148e-17
 1.38542485e-17 1.29481829e-17 1.21004888e-17 1.13013168e-17
 1.05512770e-17 9.84761003e-18 9.18769352e-18 8.56903660e-18
 7.98927438e-18 7.44406087e-18 6.93560475e-18 6.45780299e-18
 6.01254434e-18 5.59444007e-18 5.20359630e-18 4.83977774e-18
 4.49852632e-18 4.17987939e-18 3.88245001e-18 3.60492830e-18
 3.34508223e-18 3.10380357e-18 2.87892463e-18 2.66860293e-18
 2.47352724e-18 2.29121489e-18 2.12159449e-18 1.96384118e-18
 1.81774032e-18 1.68140094e-18 1.55474139e-18 1.43666854e-18
 1.32750972e-18 1.22621398e-18 1.13189084e-18 1.04478602e-18
 9.63737314e-19 8.88946723e-19 8.19407799e-19 7.55041232e-19
 6.95484506e-19 6.40398734e-19 5.89467257e-19 5.42394307e-19
 4.98903757e-19 4.58737921e-19 4.21515677e-19 3.87305284e-19
 3.55625682e-19 3.26420788e-19 2.99609051e-19 2.74808541e-19
 2.51970977e-19 2.30948854e-19 2.11605085e-19 1.93812322e-19
 1.77390589e-19 1.62358580e-19 1.48547351e-19 1.35814660e-19
 1.24172579e-19 1.13447676e-19 1.03611814e-19 9.45946830e-20
 8.63312341e-20]

Integrated fluxes of aliphatic features
6.9 micron feature 6.853331070281391e-15
7.2 micron feature 3.3651364572684543e-15
S/N of 6.9: 0.3300462117279567
S/N of 7.2: 0.10335193102520449

Section 2: 7.7 micron complex
Gaussian fitting parameters for 7.7 micron complex
[4.85135474e-14 7.90000000e+00 5.07381995e-02 1.14033534e-13
 8.20000000e+00 2.11735283e-01 3.41371762e-13 8.10000000e+00
 1.92155802e-01 8.63757650e-14 8.55890547e+00 2.82602296e-01]
Errors on fitting parameters
[7.91172400e-15 0.00000000e+00 1.00881809e-02 3.01808600e-14
 0.00000000e+00 3.93846245e-02 3.65416053e-14 0.00000000e+00
 7.64946212e-03 1.47883679e-14 0.00000000e+00 5.04107119e-02]
Fit model - 7.7 micron complex
[7.10128 7.10365 7.10602 7.10839 7.11076 7.11313 7.1155  7.11787 7.12024
 7.12262 7.12499 7.12737 7.12974 7.13212 7.1345  7.13688 7.13926 7.14164
 7.14402 7.1464  7.14878 7.15116 7.15355 7.15593 7.15832 7.16071 7.16309
 7.16548 7.16787 7.17026 7.17265 7.17504 7.17743 7.17983 7.18222 7.18461
 7.18701 7.18941 7.1918  7.1942  7.1966  7.199   7.2014  7.2038  7.2062
 7.2086  7.21101 7.21341 7.21582 7.21822 7.22063 7.22303 7.22544 7.22785
 7.23026 7.23267 7.23508 7.23749 7.23991 7.24232 7.24474 7.24715 7.24957
 7.25198 7.2544  7.25682 7.25924 7.26166 7.26408 7.2665  7.26893 7.27135
 7.27377 7.2762  7.27862 7.28105 7.28348 7.28591 7.28833 7.29076 7.2932
 7.29563 7.29806 7.30049 7.30293 7.30536 7.3078  7.31023 7.31267 7.31511
 7.31755 7.31999 7.32243 7.32487 7.32731 7.32975 7.3322  7.33464 7.33709
 7.33953 7.34198 7.34443 7.34688 7.34933 7.35178 7.35423 7.35668 7.35913
 7.36158 7.36404 7.36649 7.36895 7.37141 7.37386 7.37632 7.37878 7.38124
 7.3837  7.38616 7.38863 7.39109 7.39355 7.39602 7.39848 7.40095 7.40342
 7.40589 7.40836 7.41083 7.4133  7.41577 7.41824 7.42071 7.42319 7.42566
 7.42814 7.43061 7.43309 7.43557 7.43805 7.44053 7.44301 7.44549 7.44797
 7.45046 7.45294 7.45542 7.45791 7.4604  7.46288 7.46537 7.46786 7.47035
 7.47284 7.47533 7.47782 7.48032 7.48281 7.48531 7.4878  7.4903  7.49279
 7.49529 7.49779 7.50029 7.50279 7.50529 7.50779 7.5103  7.5128  7.51531
 7.51781 7.52032 7.52283 7.52533 7.52784 7.53035 7.53286 7.53537 7.53789
 7.5404  7.54291 7.54543 7.54794 7.55046 7.55298 7.5555  7.55801 7.56053
 7.56305 7.56558 7.5681  7.57062 7.57315 7.57567 7.5782  7.58072 7.58325
 7.58578 7.58831 7.59084 7.59337 7.5959  7.59843 7.60096 7.6035  7.60603
 7.60857 7.61111 7.61364 7.61618 7.61872 7.62126 7.6238  7.62634 7.62889
 7.63143 7.63397 7.63652 7.63906 7.64161 7.64416 7.64671 7.64926 7.65181
 7.65436 7.65691 7.65946 7.66202 7.66457 7.66713 7.66968 7.67224 7.6748
 7.67736 7.67991 7.68248 7.68504 7.6876  7.69016 7.69273 7.69529 7.69786
 7.70042 7.70299 7.70556 7.70813 7.7107  7.71327 7.71584 7.71841 7.72098
 7.72356 7.72613 7.72871 7.73129 7.73386 7.73644 7.73902 7.7416  7.74418
 7.74676 7.74935 7.75193 7.75451 7.7571  7.75969 7.76227 7.76486 7.76745
 7.77004 7.77263 7.77522 7.77781 7.78041 7.783   7.78559 7.78819 7.79079
 7.79338 7.79598 7.79858 7.80118 7.80378 7.80638 7.80899 7.81159 7.81419
 7.8168  7.81941 7.82201 7.82462 7.82723 7.82984 7.83245 7.83506 7.83767
 7.84028 7.8429  7.84551 7.84813 7.85075 7.85336 7.85598 7.8586  7.86122
 7.86384 7.86646 7.86908 7.87171 7.87433 7.87696 7.87958 7.88221 7.88484
 7.88747 7.8901  7.89273 7.89536 7.89799 7.90062 7.90326 7.90589 7.90853
 7.91117 7.9138  7.91644 7.91908 7.92172 7.92436 7.927   7.92965 7.93229
 7.93493 7.93758 7.94023 7.94287 7.94552 7.94817 7.95082 7.95347 7.95612
 7.95878 7.96143 7.96408 7.96674 7.96939 7.97205 7.97471 7.97737 7.98003
 7.98269 7.98535 7.98801 7.99067 7.99334 7.996   7.99867 8.00134 8.004
 8.00667 8.00934 8.01201 8.01468 8.01735 8.02003 8.0227  8.02538 8.02805
 8.03073 8.03341 8.03608 8.03876 8.04144 8.04412 8.04681 8.04949 8.05217
 8.05486 8.05754 8.06023 8.06291 8.0656  8.06829 8.07098 8.07367 8.07636
 8.07906 8.08175 8.08444 8.08714 8.08984 8.09253 8.09523 8.09793 8.10063
 8.10333 8.10603 8.10873 8.11144 8.11414 8.11685 8.11955 8.12226 8.12497
 8.12768 8.13039 8.1331  8.13581 8.13852 8.14123 8.14395 8.14666 8.14938
 8.1521  8.15481 8.15753 8.16025 8.16297 8.16569 8.16842 8.17114 8.17386
 8.17659 8.17932 8.18204 8.18477 8.1875  8.19023 8.19296 8.19569 8.19842
 8.20116 8.20389 8.20662 8.20936 8.2121  8.21484 8.21758 8.22031 8.22305
 8.2258  8.22854 8.23128 8.23403 8.23677 8.23952 8.24226 8.24501 8.24776
 8.25051 8.25326 8.25601 8.25877 8.26152 8.26427 8.26703 8.26978 8.27254
 8.2753  8.27806 8.28082 8.28358 8.28634 8.2891  8.29187 8.29463 8.2974
 8.30016 8.30293 8.3057  8.30847 8.31124 8.31401 8.31678 8.31955 8.32233
 8.3251  8.32788 8.33065 8.33343 8.33621 8.33899 8.34177 8.34455 8.34733
 8.35011 8.3529  8.35568 8.35847 8.36125 8.36404 8.36683 8.36962 8.37241
 8.3752  8.37799 8.38079 8.38358 8.38638 8.38917 8.39197 8.39477 8.39756
 8.40036 8.40317 8.40597 8.40877 8.41157 8.41438 8.41718 8.41999 8.4228
 8.4256  8.42841 8.43122 8.43403 8.43685 8.43966 8.44247 8.44529 8.4481
 8.45092 8.45374 8.45655 8.45937 8.46219 8.46502 8.46784 8.47066 8.47348
 8.47631 8.47914 8.48196 8.48479 8.48762 8.49045 8.49328 8.49611 8.49894
 8.50178 8.50461 8.50745 8.51028 8.51312 8.51596 8.5188  8.52164 8.52448
 8.52732 8.53016 8.53301 8.53585 8.5387  8.54154 8.54439 8.54724 8.55009
 8.55294 8.55579 8.55864 8.5615  8.56435 8.56721 8.57006 8.57292 8.57578
 8.57864 8.5815  8.58436 8.58722 8.59008 8.59295 8.59581 8.59868 8.60154
 8.60441 8.60728 8.61015 8.61302 8.61589 8.61876 8.62164 8.62451 8.62739
 8.63026 8.63314 8.63602 8.6389  8.64178 8.64466 8.64754 8.65042 8.65331
 8.65619 8.65908 8.66197 8.66485 8.66774 8.67063 8.67352 8.67642 8.67931
 8.6822  8.6851  8.68799 8.69089 8.69379 8.69668 8.69958 8.70248 8.70539
 8.70829 8.71119 8.7141  8.717   8.71991 8.72281 8.72572 8.72863 8.73154
 8.73445 8.73736 8.74028 8.74319 8.74611 8.74902 8.75194 8.75486 8.75777
 8.76069 8.76361 8.76654 8.76946 8.77238 8.77531 8.77823 8.78116 8.78409
 8.78702 8.78994 8.79288 8.79581 8.79874 8.80167 8.80461 8.80754 8.81048
 8.81342 8.81635 8.81929 8.82223 8.82518 8.82812 8.83106 8.83401 8.83695
 8.8399  8.84284 8.84579 8.84874 8.85169 8.85464 8.85759 8.86055 8.8635
 8.86646 8.86941 8.87237 8.87533 8.87829 8.88125 8.88421 8.88717 8.89013
 8.8931  8.89606 8.89903]
[7.71387493e-19 8.18188271e-19 8.67767517e-19 9.20285176e-19
 9.75910036e-19 1.03482019e-18 1.09720353e-18 1.16325822e-18
 1.23319331e-18 1.30755060e-18 1.38593851e-18 1.46926584e-18
 1.55709161e-18 1.65043179e-18 1.74921687e-18 1.85375313e-18
 1.96436328e-18 2.08138735e-18 2.20518347e-18 2.33612887e-18
 2.47462076e-18 2.62107740e-18 2.77660814e-18 2.94037660e-18
 3.11425129e-18 3.29808307e-18 3.49158325e-18 3.69695145e-18
 3.91400247e-18 4.14337313e-18 4.38573314e-18 4.64178674e-18
 4.91227427e-18 5.19920247e-18 5.50100114e-18 5.81969310e-18
 6.15762819e-18 6.51446997e-18 6.88961528e-18 7.28725992e-18
 7.70698973e-18 8.14997365e-18 8.61743891e-18 9.11067369e-18
 9.63102992e-18 1.01799262e-17 1.07613281e-17 1.13719774e-17
 1.20186154e-17 1.26975994e-17 1.34164048e-17 1.41709608e-17
 1.49695523e-17 1.58112176e-17 1.66981572e-17 1.76326770e-17
 1.86171923e-17 1.96542328e-17 2.07510988e-17 2.19015088e-17
 2.31179403e-17 2.43933907e-17 2.57416551e-17 2.71549314e-17
 2.86484625e-17 3.02202221e-17 3.18740683e-17 3.36140359e-17
 3.54443431e-17 3.73693997e-17 3.94023926e-17 4.15314227e-17
 4.37696803e-17 4.61323899e-17 4.86056154e-17 5.12155826e-17
 5.39583864e-17 5.68403556e-17 5.98553285e-17 6.30350925e-17
 6.63887695e-17 6.98964004e-17 7.35792235e-17 7.74454022e-17
 8.15205559e-17 8.57801856e-17 9.02686818e-17 9.49589255e-17
 9.98996523e-17 1.05082614e-16 1.10518842e-16 1.16219829e-16
 1.22197536e-16 1.28464419e-16 1.35033441e-16 1.41918091e-16
 1.49162668e-16 1.56722683e-16 1.64675423e-16 1.72971814e-16
 1.81696421e-16 1.90833303e-16 2.00400415e-16 2.10416414e-16
 2.20900686e-16 2.31873364e-16 2.43355359e-16 2.55368380e-16
 2.67934965e-16 2.81133366e-16 2.94880635e-16 3.09314400e-16
 3.24406244e-16 3.40118031e-16 3.56606362e-16 3.73838000e-16
 3.91843501e-16 4.10654529e-16 4.30303892e-16 4.50910822e-16
 4.72343778e-16 4.94720835e-16 5.18176735e-16 5.42560731e-16
 5.68111833e-16 5.94775348e-16 6.22595052e-16 6.51616216e-16
 6.81885650e-16 7.13451745e-16 7.46364512e-16 7.80675629e-16
 8.16438479e-16 8.53862228e-16 8.92702203e-16 9.33332196e-16
 9.75485429e-16 1.01956639e-15 1.06547326e-15 1.11327350e-15
 1.16303668e-15 1.21483450e-15 1.26874091e-15 1.32483209e-15
 1.38342655e-15 1.44413479e-15 1.50727080e-15 1.57319026e-15
