hd44179_SWS_CWsubFitting and integrated flux data

Section 1: Aliphatic features
Gaussian fitting parameters for 6.9 and 7.2 micron features
[2.34842351e-14 6.80000000e+00 6.23743590e-02 6.42338144e-16
 7.20617792e+00 0.00000000e+00]
Errors on aliphatic fitting parameters
[6.99904592e-15 0.00000000e+00 2.20620261e-02 0.00000000e+00
 0.00000000e+00 0.00000000e+00]
Fit model - aliphatic features
[6.60032 6.60196 6.60361 6.60529 6.60691 6.60856 6.61022 6.61187 6.61352
 6.6152  6.61649 6.61834 6.62032 6.62177 6.62343 6.62511 6.62674 6.62838
 6.63005 6.63169 6.63336 6.63503 6.63666 6.63829 6.63998 6.64161 6.64329
 6.64495 6.6466  6.64822 6.64992 6.65153 6.65323 6.65488 6.65654 6.65841
 6.65986 6.66175 6.6632  6.66507 6.66673 6.66838 6.67008 6.6717  6.6734
 6.67503 6.67667 6.67835 6.68002 6.68167 6.68334 6.68499 6.68661 6.68832
 6.68996 6.69168 6.6933  6.69498 6.69659 6.69828 6.7001  6.70162 6.70351
 6.70522 6.70682 6.70831 6.71018 6.71183 6.71353 6.71518 6.71681 6.71853
 6.72017 6.7218  6.72353 6.72514 6.72662 6.72893 6.73046 6.73204 6.73382
 6.73541 6.73685 6.73875 6.74043 6.74208 6.7438  6.74542 6.74707 6.74877
 6.75041 6.75211 6.75402 6.75544 6.75735 6.75907 6.7607  6.76241 6.76406
 6.76568 6.76739 6.76906 6.77073 6.77241 6.77408 6.77568 6.77745 6.77935
 6.78078 6.78272 6.78438 6.78601 6.78775 6.78939 6.79126 6.79278 6.79466
 6.7961  6.79802 6.79972 6.80136 6.8031  6.80472 6.80637 6.80808 6.80972
 6.81144 6.81336 6.81478 6.81671 6.81842 6.82007 6.82177 6.82343 6.82504
 6.8268  6.82872 6.83015 6.8321  6.83378 6.8354  6.83716 6.8388  6.84067
 6.84221 6.84409 6.84554 6.84746 6.84915 6.85082 6.85256 6.85419 6.85607
 6.85756 6.85949 6.86098 6.86286 6.86449 6.86623 6.8679  6.8696  6.87152
 6.87297 6.87486 6.87641 6.87827 6.88014 6.88169 6.88358 6.88503 6.88696
 6.88867 6.89033 6.89208 6.89371 6.89559 6.89709 6.89902 6.90052 6.90241
 6.90403 6.9058  6.90773 6.90916 6.91113 6.91282 6.91444 6.91621 6.91786
 6.91974 6.9213  6.92319 6.92465 6.92658 6.92825 6.92997 6.93191 6.93334
 6.93529 6.93699 6.93868 6.94061 6.94207 6.94363 6.94396 6.94549 6.94553
 6.9474  6.94773 6.94809 6.94927 6.9508  6.95084 6.95266 6.95274 6.95336
 6.9542  6.95613 6.9562  6.9573  6.95783 6.95921 6.95953 6.9613  6.96148
 6.96289 6.96291 6.96439 6.96486 6.96626 6.96659 6.96783 6.96826 6.96961
 6.9702  6.97159 6.97166 6.97307 6.97355 6.97481 6.97513 6.97642 6.97701
 6.97842 6.97887 6.9799  6.98046 6.98181 6.98236 6.98348 6.98382 6.98522
 6.98575 6.98715 6.98745 6.9886  6.98916 6.9906  6.99112 6.99222 6.99255
 6.99391 6.9945  6.9959  6.99622 6.99734 6.99791 6.9993  6.99985 7.00127
 7.00131 7.0027  7.00321 7.00465 7.0048  7.0064  7.00667 7.00807 7.00854
 7.01    7.01014 7.01148 7.01204 7.01337 7.0135  7.01498 7.01544 7.01684
 7.01712 7.0187  7.01886 7.02031 7.02081 7.02221 7.02225 7.02368 7.02422
 7.02561 7.02619 7.02731 7.02763 7.02904 7.02962 7.031   7.0313  7.03243
 7.03295 7.0344  7.03495 7.03609 7.0364  7.03782 7.03835 7.03975 7.04015
 7.04122 7.04178 7.04313 7.04367 7.04495 7.04519 7.0466  7.04716 7.04854
 7.04889 7.05037 7.05057 7.05198 7.05247 7.05386 7.05408 7.05539 7.05595
 7.05737 7.05782 7.05891 7.05942 7.06078 7.06133 7.06237 7.0628  7.06423
 7.06474 7.06617 7.06644 7.06783 7.06818 7.06918 7.06965 7.06965 7.07156
 7.07303 7.07497 7.07667 7.0784  7.08037 7.08181 7.08379 7.08577 7.08722
 7.08923 7.09089 7.09255 7.09457 7.09602 7.09799 7.09998 7.10142 7.10339
 7.10513 7.10683 7.10877 7.11025 7.11216 7.11399 7.11565 7.11761 7.11946
 7.12107 7.12295 7.12449 7.12648 7.12823 7.12991 7.13181 7.13346 7.13532
 7.13718 7.13884 7.14074 7.14243 7.14416 7.14616 7.14789 7.14959 7.15149
 7.15315 7.15501 7.15686 7.15852 7.16043 7.16212 7.16386 7.16586 7.16742
 7.16929 7.17119 7.17278 7.17472 7.17658 7.17824 7.18015 7.18184 7.18359
 7.18559 7.18732 7.18903 7.19093 7.1926  7.19446 7.19632 7.19799 7.1999
 7.2016  7.20334 7.20535 7.20709 7.20878 7.21069 7.21237 7.21423 7.21618
 7.21777 7.21967 7.22155 7.22311 7.22513 7.22689 7.22856 7.23049 7.23235
 7.23401 7.23599 7.23802 7.23947 7.24146 7.24321 7.24494 7.24692 7.24837
 7.25032 7.25236 7.25383 7.25583 7.25784 7.25929 7.26131 7.26331 7.26495
 7.26683 7.26877 7.27043 7.27221 7.27424 7.2758  7.27769 7.27929 7.2812
 7.28316 7.28485 7.28671 7.28863 7.29034 7.29208 7.29411 7.29588 7.29755
 7.29949 7.30137 7.30303 7.30502 7.30705 7.30851 7.31052 7.31254 7.31418
 7.31607 7.31802 7.31968 7.32146 7.32351 7.32508 7.32696 7.32887 7.33049
 7.33245 7.33441 7.33602 7.33794 7.33982 7.34139 7.34344 7.34523 7.34688
 7.34885 7.35075 7.35238 7.35441 7.35642 7.35788 7.35993 7.36192 7.3636
 7.36549 7.36742 7.36913 7.37087 7.37293 7.37471 7.37638 7.37834 7.38024
 7.38188 7.38391 7.38593 7.38739 7.38945 7.39144 7.39312 7.39502 7.39695
 7.39866 7.40041 7.40247 7.40426 7.40593 7.40789 7.4098  7.41144 7.41348
 7.4155  7.41696 7.41903 7.42102 7.42272 7.42461 7.42654 7.42838 7.43
 7.43207 7.43414 7.43582 7.43766 7.43957 7.44165 7.44338 7.44511 7.44704
 7.44895 7.45064 7.45264 7.45471 7.45617 7.45821 7.46024 7.4619  7.46382
 7.46577 7.46747 7.46924 7.47132 7.4731  7.47478 7.47675 7.47867 7.48031
 7.48237 7.48439 7.48586 7.48809 7.48993 7.49178 7.494   7.49548 7.4975
 7.49956 7.5012  7.50313 7.5051  7.50679 7.50856 7.51066 7.51244 7.51412
 7.5161  7.51803 7.51967 7.52174 7.52376 7.52555 7.52748 7.52931 7.53131
 7.53339 7.53487 7.53691 7.53896 7.54062 7.54256 7.54451 7.54623 7.54798
 7.55009 7.55202 7.55386 7.5557  7.55763 7.55973 7.56149 7.56321 7.56517
 7.56711 7.56877 7.57083 7.57287 7.57466 7.57658 7.57844 7.58044 7.58253
 7.58401 7.58606 7.58811 7.58979 7.59173 7.59368 7.59541 7.59746 7.59942
 7.60124 7.60337 7.60505 7.60682 7.60895 7.61073 7.61242 7.61442 7.61637
 7.61832 7.62024 7.62211 7.62407 7.62602 7.6277  7.62975 7.6318  7.6336
 7.63553 7.63739 7.63934 7.6415  7.64299 7.64506 7.6471  7.64879]
[1.39752679e-16 1.51972617e-16 1.65230241e-16 1.79788508e-16
 1.94906449e-16 2.11465092e-16 2.29381880e-16 2.48520334e-16
 2.69067253e-16 2.91524304e-16 3.09879643e-16 3.37986158e-16
 3.70536611e-16 3.96092684e-16 4.27237538e-16 4.60919262e-16
 4.95790686e-16 5.33171425e-16 5.73725719e-16 6.16122206e-16
 6.62044634e-16 7.10880104e-16 7.61491200e-16 8.15148689e-16
 8.74146368e-16 9.34441286e-16 1.00022590e-15 1.06901298e-15
 1.14127164e-15 1.21613821e-15 1.29904588e-15 1.38182260e-15
 1.47389219e-15 1.56800235e-15 1.66756949e-15 1.78580963e-15
 1.88206926e-15 2.01373568e-15 2.11964090e-15 2.26268072e-15
 2.39591982e-15 2.53435101e-15 2.68338270e-15 2.83159066e-15
 2.99375527e-15 3.15575500e-15 3.32530401e-15 3.50592377e-15
 3.69253482e-15 3.88392875e-15 4.08483458e-15 4.29051705e-15
 4.49946844e-15 4.72761691e-15 4.95378736e-15 5.19876144e-15
 5.43677885e-15 5.69107200e-15 5.94187715e-15 6.21258931e-15
 6.51258575e-15 6.76978617e-15 7.09792553e-15 7.40263908e-15
 7.69434783e-15 7.97161098e-15 8.32703992e-15 8.64733450e-15
 8.98364799e-15 9.31595359e-15 9.64966632e-15 1.00073625e-14
 1.03534284e-14 1.07019081e-14 1.10763289e-14 1.14286362e-14
 1.17554620e-14 1.22705392e-14 1.26145298e-14 1.29716921e-14
 1.33759077e-14 1.37381522e-14 1.40667911e-14 1.45006411e-14
 1.48838803e-14 1.52593545e-14 1.56491829e-14 1.60143097e-14
 1.63835922e-14 1.67607019e-14 1.71206692e-14 1.74892017e-14
 1.78968645e-14 1.81950293e-14 1.85887308e-14 1.89353530e-14
 1.92562829e-14 1.95844316e-14 1.98921883e-14 2.01853072e-14
 2.04844014e-14 2.07657069e-14 2.10357908e-14 2.12956280e-14
 2.15416057e-14 2.17652979e-14 2.19985942e-14 2.22318770e-14
 2.23953734e-14 2.26001066e-14 2.27592898e-14 2.29008986e-14
 2.30356701e-14 2.31469266e-14 2.32548173e-14 2.33274320e-14
 2.33983296e-14 2.34383746e-14 2.34724059e-14 2.34839985e-14
 2.34786535e-14 2.34552490e-14 2.34170927e-14 2.33620886e-14
 2.32880183e-14 2.32008136e-14 2.30925482e-14 2.29516665e-14
 2.28341037e-14 2.26564490e-14 2.24822087e-14 2.22994586e-14
 2.20965459e-14 2.18844968e-14 2.16661145e-14 2.14135498e-14
 2.11221926e-14 2.08949029e-14 2.05714664e-14 2.02809298e-14
 1.99909168e-14 1.96654989e-14 1.93531646e-14 1.89870525e-14
 1.86781448e-14 1.82927194e-14 1.79897243e-14 1.75815995e-14
 1.72165291e-14 1.68510700e-14 1.64659813e-14 1.61018532e-14
 1.56785637e-14 1.53411000e-14 1.49021107e-14 1.45622733e-14
 1.41330091e-14 1.37609611e-14 1.33645318e-14 1.29852885e-14
 1.26010029e-14 1.21697686e-14 1.18464637e-14 1.14286362e-14
 1.10893940e-14 1.06868545e-14 1.02876537e-14 9.96130372e-15
 9.56934352e-15 9.27334718e-15 8.88606785e-15 8.54962756e-15
 8.22929562e-15 7.89852324e-15 7.59702152e-15 7.25738385e-15
 6.99276236e-15 6.66075793e-15 6.40940923e-15 6.10114404e-15
 5.84447211e-15 5.57206366e-15 5.28462840e-15 5.07812787e-15
 4.80266192e-15 4.57464959e-15 4.36324232e-15 4.14021880e-15
 3.93973592e-15 3.71993822e-15 3.54444680e-15 3.34008600e-15
 3.18831779e-15 2.99570410e-15 2.83626251e-15 2.67890518e-15
 2.50958126e-15 2.39018019e-15 2.23456889e-15 2.10551746e-15
 1.98315270e-15 1.85042216e-15 1.75483272e-15 1.65714278e-15
 1.63705372e-15 1.54648348e-15 1.54417162e-15 1.43920247e-15
 1.42130087e-15 1.40198095e-15 1.34016377e-15 1.26337806e-15
 1.26142055e-15 1.17497871e-15 1.17129517e-15 1.14307278e-15
 1.10574338e-15 1.02382414e-15 1.02095147e-15 9.76692129e-16
 9.55951187e-16 9.03683392e-16 8.91914994e-16 8.29141196e-16
 8.22973187e-16 7.75994351e-16 7.75344797e-16 7.28548411e-16
 7.14202488e-16 6.72895828e-16 6.63463770e-16 6.29031324e-16
 6.17456156e-16 5.82301692e-16 5.67489783e-16 5.33877407e-16
 5.32231377e-16 5.00001223e-16 4.89423580e-16 4.62579420e-16
 4.55969953e-16 4.30154692e-16 4.18780209e-16 3.92658206e-16
 3.84628000e-16 3.66788596e-16 3.57398312e-16 3.35626246e-16
 3.27097150e-16 3.10318409e-16 3.05377752e-16 2.85759596e-16
 2.78629458e-16 2.60548658e-16 2.56812689e-16 2.42928995e-16
 2.36413447e-16 2.20368804e-16 2.14818349e-16 2.03486742e-16
 2.00193145e-16 1.87117427e-16 1.81686988e-16 1.69362867e-16
 1.66653624e-16 1.57475401e-16 1.52981275e-16 1.42502413e-16
 1.38538110e-16 1.28759184e-16 1.28492990e-16 1.19546213e-16
 1.16407661e-16 1.07944633e-16 1.07095964e-16 9.84129033e-17
 9.70123857e-17 9.00367154e-17 8.77992718e-17 8.11679959e-17
 8.05567383e-17 7.49149799e-17 7.26659951e-17 6.75697016e-17
 6.70895249e-17 6.18386969e-17 6.02850413e-17 5.57739568e-17
 5.49097644e-17 5.02592954e-17 4.98091223e-17 4.58951521e-17
 4.46124944e-17 4.11944949e-17 4.11004807e-17 3.78665309e-17
 3.67076044e-17 3.38733115e-17 3.27515582e-17 3.06819520e-17
 3.01132451e-17 2.77216290e-17 2.67898934e-17 2.46883797e-17
 2.42522347e-17 2.26727638e-17 2.19784794e-17 2.01453564e-17
 1.94879889e-17 1.81884537e-17 1.78492765e-17 1.63695214e-17
 1.58471157e-17 1.45409163e-17 1.41865811e-17 1.32779162e-17
 1.28242917e-17 1.17895177e-17 1.13978815e-17 1.05175908e-17
 1.03597836e-17 9.47650098e-18 9.14566238e-18 8.37596387e-18
 8.19063500e-18 7.44863061e-18 7.35333848e-18 6.71328526e-18
 6.50337806e-18 5.94096883e-18 5.85625869e-18 5.37489220e-18
 5.18068796e-18 4.71741303e-18 4.57893276e-18 4.25919872e-18
 4.11693113e-18 3.75912574e-18 3.62292476e-18 3.37800589e-18
 3.28137860e-18 2.97846196e-18 2.87696705e-18 2.60952179e-18
 2.56173753e-18 2.32854847e-18 2.27307834e-18 2.12139853e-18
 2.05346543e-18 2.05346543e-18 1.79800950e-18 1.62222220e-18
 1.41505558e-18 1.25438810e-18 1.10875471e-18 9.62491409e-19
 8.67387876e-19 7.51117821e-19 6.49778234e-19 5.83973333e-19
 5.03180113e-19 4.44605425e-19 3.92571209e-19 3.37073166e-19
 3.01944878e-19 2.59785133e-19 2.22945139e-19 1.99462980e-19
 1.71143905e-19 1.49370326e-19 1.30677066e-19 1.12083809e-19
 9.96343352e-20 8.55179591e-20 7.38078841e-20 6.45306391e-20
 5.50161725e-20 4.72834647e-20 4.14143697e-20 3.54465515e-20
 3.11834634e-20 2.64010605e-20 2.27862602e-20 1.97679230e-20
 1.68185306e-20 1.46056678e-20 1.24478065e-20 1.05993212e-20
 9.17580357e-21 7.77279349e-21 6.70095683e-21 5.75229391e-21
 4.81706170e-21 4.12825137e-21 3.54475919e-21 2.98703122e-21
 2.57012441e-21 2.16988826e-21 1.83203078e-21 1.57272242e-21
 1.31828339e-21 1.12681841e-21 9.57964833e-22 7.94131776e-22
 6.85561077e-22 5.74320482e-22 4.79323921e-22 4.11724008e-22
 3.41717886e-22 2.85543584e-22 2.43073471e-22 2.01785421e-22
 1.71007337e-22 1.43963345e-22 1.18138134e-22 9.94854268e-23
 8.38809406e-23 6.93348182e-23 5.86029134e-23 4.85524916e-23
 4.01899669e-23 3.38907111e-23 2.78626247e-23 2.33869097e-23
 1.95344047e-23 1.58517270e-23 1.32182985e-23 1.10718007e-23
 9.05438756e-24 7.58024019e-24 6.22114729e-24 5.05232308e-24
 4.26072018e-24 3.47276630e-24 2.83404200e-24 2.39255563e-24
 1.91967656e-24 1.58318653e-24 1.31763860e-24 1.06477730e-24
 8.66331469e-25 7.20136712e-25 5.77125125e-25 4.59454772e-25
 3.90146222e-25 3.11446077e-25 2.55254477e-25 2.09515128e-25
 1.66976225e-25 1.41318403e-25 1.12820484e-25 8.90447972e-26
 7.50341443e-26 5.93903175e-26 4.69045289e-26 3.95358743e-26
 3.11314398e-26 2.45462961e-26 2.01844968e-26 1.61155891e-26
 1.27626377e-26 1.04453405e-26 8.41923355e-27 6.57714982e-27
 5.43648380e-27 4.31256987e-27 3.54222166e-27 2.79822859e-27
 2.19475907e-27 1.77860244e-27 1.40999494e-27 1.10840265e-27
 8.93846577e-28 7.17553276e-28 5.54774769e-28 4.42909553e-28
 3.57864214e-28 2.79100023e-28 2.19149034e-28 1.76880873e-28
 1.36683838e-28 1.04965712e-28 8.67543481e-29 6.66761443e-29
 5.11242073e-29 4.11761782e-29 3.20602426e-29 2.47411286e-29
 1.98278462e-29 1.56257061e-29 1.18652208e-29 9.60263047e-30
 7.44731259e-30 5.74702870e-30 4.60954075e-30 3.52677005e-30
 2.69567667e-30 2.16012364e-30 1.65725842e-30 1.27732320e-30
 1.02696767e-30 7.71671087e-31 6.00712495e-31 4.76530944e-31
 3.61087085e-31 2.76059940e-31 2.19101003e-31 1.64150676e-31
 1.23203555e-31 9.99587658e-32 7.44599636e-32 5.58881059e-32
 4.38311051e-32 3.33178322e-32 2.51558388e-32 1.95958688e-32
 1.51863055e-32 1.12186845e-32 8.62830339e-33 6.73958687e-33
 5.03863003e-33 3.79707601e-33 2.97217881e-33 2.19274645e-33
 1.61843760e-33 1.29862622e-33 9.50988232e-34 7.03095252e-34
 5.44428903e-34 4.07327060e-34 3.03070274e-34 2.33040966e-34
 1.77956554e-34 1.29422854e-34 9.80506346e-35 7.56222535e-35
 5.57010722e-35 4.13097280e-35 3.19349650e-35 2.31631007e-35
 1.68359085e-35 1.33599721e-35 9.61625139e-36 7.00283596e-36
 5.33658528e-36 3.94171158e-36 2.89008095e-36 2.14799288e-36
 1.65292081e-36 1.18151478e-36 8.43622117e-37 6.41308857e-37
 4.74552213e-37 3.46837104e-37 2.46255010e-37 1.85056847e-37
 1.38960430e-37 1.00855541e-37 7.33738676e-38 5.53295345e-38
 3.95799115e-38 2.79531348e-38 2.18579388e-38 1.54865085e-38
 1.09791898e-38 8.28080714e-39 5.97042204e-39 4.27854779e-39
 3.19737671e-39 2.35906276e-39 1.64858016e-39 1.21211468e-39
 9.06059342e-40 6.43504267e-40 4.60575744e-40 3.45865446e-40
 2.41118706e-40 1.69097387e-40 1.30530750e-40 8.80449090e-41
 6.35601649e-41 4.57631217e-41 3.08182585e-41 2.36608726e-41
 1.64808877e-41 1.13854824e-41 8.47487356e-42 5.98215586e-42
 4.18811076e-42 3.08205949e-42 2.23366385e-42 1.52290315e-42
 1.09973784e-42 8.08210505e-43 5.61653916e-43 3.93534860e-43
 2.90658955e-43 1.98084651e-43 1.36106652e-43 9.75176871e-44
 6.80082951e-44 4.82798888e-44 3.31680971e-44 2.24222590e-44
 1.69587737e-44 1.15296771e-44 7.81538570e-45 5.69988138e-45
 3.93793652e-45 2.71281644e-45 1.95123504e-45 1.39432405e-45
 9.28838298e-46 6.39928827e-46 4.48209994e-46 3.13655907e-46
 2.15494606e-46 1.43082977e-46 1.01427300e-46 7.24075557e-47
 4.92704443e-47 3.36258196e-47 2.42310385e-47 1.61195941e-47
 1.07544442e-47 7.53319417e-48 5.13740978e-48 3.54251485e-48
 2.37299834e-48 1.55946432e-48 1.15763634e-48 7.65468292e-49
 5.05607079e-49 3.59631500e-49 2.42444575e-49 1.62952540e-49
 1.14451580e-49 7.52260242e-50 5.03126428e-50 3.46003190e-50
 2.23006944e-50 1.57580033e-50 1.09210317e-50 7.01738349e-51
 4.84464692e-51 3.40531897e-51 2.24159593e-51 1.48959075e-51
 9.88899464e-52 6.60024029e-52 4.44779232e-52 2.93805783e-52
 1.94298489e-52 1.35957937e-52 8.78540402e-53 5.67087136e-53
 3.85776213e-53 2.54997242e-53 1.70947719e-53 1.12298246e-53
 7.04262135e-54 5.10091003e-54 3.25551200e-54 2.08905305e-54
 1.44538620e-54]

Integrated fluxes of aliphatic features
6.9 micron feature nan
7.2 micron feature nan
S/N of 6.9: nan
S/N of 7.2: nan

Section 2: 7.7 micron complex
Gaussian fitting parameters for 7.7 micron complex
[2.30000000e-12 7.79645153e+00 2.18315950e-01 1.50000000e-12
 7.79578846e+00 2.13890319e-01 2.00000000e-19 8.50000000e+00
 3.00000000e-02 3.95096442e-12 8.50000000e+00 9.90149205e-01]
Errors on fitting parameters
[0.00000000e+00 5.27944034e-02 2.32244590e-02 0.00000000e+00
 7.93351159e-02 3.46455035e-02 1.23321374e-14 0.00000000e+00
 0.00000000e+00 5.01476215e-15 0.00000000e+00 4.91061894e-03]
Fit model - 7.7 micron complex
[7.10142 7.10339 7.10513 7.10683 7.10877 7.11025 7.11216 7.11399 7.11565
 7.11761 7.11946 7.12107 7.12295 7.12449 7.12648 7.12823 7.12991 7.13181
 7.13346 7.13532 7.13718 7.13884 7.14074 7.14243 7.14416 7.14616 7.14789
 7.14959 7.15149 7.15315 7.15501 7.15686 7.15852 7.16043 7.16212 7.16386
 7.16586 7.16742 7.16929 7.17119 7.17278 7.17472 7.17658 7.17824 7.18015
 7.18184 7.18359 7.18559 7.18732 7.18903 7.19093 7.1926  7.19446 7.19632
 7.19799 7.1999  7.2016  7.20334 7.20535 7.20709 7.20878 7.21069 7.21237
 7.21423 7.21618 7.21777 7.21967 7.22155 7.22311 7.22513 7.22689 7.22856
 7.23049 7.23235 7.23401 7.23599 7.23802 7.23947 7.24146 7.24321 7.24494
 7.24692 7.24837 7.25032 7.25236 7.25383 7.25583 7.25784 7.25929 7.26131
 7.26331 7.26495 7.26683 7.26877 7.27043 7.27221 7.27424 7.2758  7.27769
 7.27929 7.2812  7.28316 7.28485 7.28671 7.28863 7.29034 7.29208 7.29411
 7.29588 7.29755 7.29949 7.30137 7.30303 7.30502 7.30705 7.30851 7.31052
 7.31254 7.31418 7.31607 7.31802 7.31968 7.32146 7.32351 7.32508 7.32696
 7.32887 7.33049 7.33245 7.33441 7.33602 7.33794 7.33982 7.34139 7.34344
 7.34523 7.34688 7.34885 7.35075 7.35238 7.35441 7.35642 7.35788 7.35993
 7.36192 7.3636  7.36549 7.36742 7.36913 7.37087 7.37293 7.37471 7.37638
 7.37834 7.38024 7.38188 7.38391 7.38593 7.38739 7.38945 7.39144 7.39312
 7.39502 7.39695 7.39866 7.40041 7.40247 7.40426 7.40593 7.40789 7.4098
 7.41144 7.41348 7.4155  7.41696 7.41903 7.42102 7.42272 7.42461 7.42654
 7.42838 7.43    7.43207 7.43414 7.43582 7.43766 7.43957 7.44165 7.44338
 7.44511 7.44704 7.44895 7.45064 7.45264 7.45471 7.45617 7.45821 7.46024
 7.4619  7.46382 7.46577 7.46747 7.46924 7.47132 7.4731  7.47478 7.47675
 7.47867 7.48031 7.48237 7.48439 7.48586 7.48809 7.48993 7.49178 7.494
 7.49548 7.4975  7.49956 7.5012  7.50313 7.5051  7.50679 7.50856 7.51066
 7.51244 7.51412 7.5161  7.51803 7.51967 7.52174 7.52376 7.52555 7.52748
 7.52931 7.53131 7.53339 7.53487 7.53691 7.53896 7.54062 7.54256 7.54451
 7.54623 7.54798 7.55009 7.55202 7.55386 7.5557  7.55763 7.55973 7.56149
 7.56321 7.56517 7.56711 7.56877 7.57083 7.57287 7.57466 7.57658 7.57844
 7.58044 7.58253 7.58401 7.58606 7.58811 7.58979 7.59173 7.59368 7.59541
 7.59746 7.59942 7.60124 7.60337 7.60505 7.60682 7.60895 7.61073 7.61242
 7.61442 7.61637 7.61832 7.62024 7.62211 7.62407 7.62602 7.6277  7.62975
 7.6318  7.6336  7.63553 7.63739 7.63934 7.6415  7.64299 7.64506 7.6471
 7.64879 7.65086 7.65269 7.6546  7.65681 7.65846 7.66042 7.6624  7.66412
 7.66618 7.66814 7.66998 7.67212 7.6738  7.67559 7.67773 7.67952 7.6815
 7.68334 7.68518 7.68745 7.68921 7.69093 7.69291 7.69488 7.69684 7.69876
 7.70065 7.70262 7.70459 7.70626 7.70834 7.71039 7.71221 7.71415 7.716
 7.71805 7.72013 7.72162 7.72385 7.72575 7.72765 7.72987 7.73137 7.73345
 7.73549 7.73736 7.7393  7.74112 7.74318 7.74525 7.74694 7.74903 7.75087
 7.7528  7.75501 7.75668 7.75866 7.76063 7.76254 7.76446 7.76643 7.76841
 7.7704  7.77228 7.77421 7.77619 7.77816 7.78017 7.78188 7.78396 7.78595
 7.78781 7.78994 7.79165 7.79373 7.79572 7.79758 7.79972 7.80142 7.8032
 7.80549 7.80735 7.8092  7.8112  7.81298 7.81528 7.81713 7.81898 7.82099
