iras17347_SWS_CWsubFitting and integrated flux data

Section 1: Aliphatic features
Gaussian fitting parameters for 6.9 and 7.2 micron features
[4.79910281e-14 6.94573941e+00 4.53244136e-02 1.00000000e-14
 7.25000000e+00 2.00000000e-01]
Errors on aliphatic fitting parameters
[4.88957060e-15 5.47055663e-03 4.26676457e-03 0.00000000e+00
 0.00000000e+00 0.00000000e+00]
Fit model - aliphatic features
[6.60206 6.60536 6.60866 6.61197 6.61527 6.61858 6.62189 6.6252  6.62852
 6.63183 6.63515 6.63847 6.64179 6.64511 6.64843 6.65176 6.65508 6.65841
 6.66174 6.66507 6.66841 6.67174 6.67508 6.67842 6.68176 6.6851  6.68844
 6.69179 6.69513 6.69848 6.70183 6.70518 6.70854 6.71189 6.71525 6.71861
 6.72197 6.72533 6.72869 6.73206 6.73543 6.73879 6.74216 6.74554 6.74891
 6.75229 6.75566 6.75904 6.76242 6.7658  6.76919 6.77257 6.77596 6.77935
 6.78274 6.78613 6.78953 6.79292 6.79632 6.79972 6.80312 6.80652 6.80992
 6.81333 6.81674 6.82015 6.82356 6.82697 6.83038 6.8338  6.83722 6.84064
 6.84406 6.84748 6.85091 6.85433 6.85776 6.86119 6.86462 6.86806 6.87149
 6.87493 6.87837 6.8818  6.88525 6.88869 6.89214 6.89558 6.89903 6.90248
 6.90593 6.90939 6.91284 6.9163  6.91976 6.92322 6.92668 6.93015 6.93361
 6.93708 6.94055 6.94402 6.94413 6.94749 6.9476  6.95097 6.95108 6.95444
 6.95456 6.95792 6.95803 6.9614  6.96151 6.96488 6.96499 6.96837 6.96848
 6.97185 6.97196 6.97534 6.97545 6.97883 6.97894 6.98232 6.98243 6.98581
 6.98592 6.9893  6.98941 6.9928  6.99291 6.9963  6.99641 6.9998  6.99991
 7.0033  7.00341 7.0068  7.00691 7.0103  7.01041 7.01381 7.01392 7.01732
 7.01743 7.02083 7.02094 7.02434 7.02445 7.02785 7.02796 7.03137 7.03148
 7.03488 7.03499 7.0384  7.03851 7.04192 7.04203 7.04544 7.04555 7.04897
 7.04908 7.05249 7.0526  7.05602 7.05613 7.05955 7.05966 7.06308 7.06319
 7.06661 7.06672 7.07015 7.07026 7.07379 7.07733 7.08087 7.08441 7.08795
 7.0915  7.09505 7.09859 7.10214 7.1057  7.10925 7.11281 7.11636 7.11992
 7.12348 7.12705 7.13061 7.13418 7.13774 7.14131 7.14489 7.14846 7.15203
 7.15561 7.15919 7.16277 7.16635 7.16994 7.17352 7.17711 7.1807  7.18429
 7.18788 7.19148 7.19508 7.19867 7.20227 7.20588 7.20948 7.21309 7.21669
 7.2203  7.22391 7.22753 7.23114 7.23476 7.23838 7.242   7.24562 7.24924
 7.25287 7.25649 7.26012 7.26375 7.26739 7.27102 7.27466 7.2783  7.28194
 7.28558 7.28922 7.29287 7.29651 7.30016 7.30381 7.30747 7.31112 7.31478
 7.31844 7.3221  7.32576 7.32942 7.33309 7.33676 7.34043 7.3441  7.34777
 7.35144 7.35512 7.3588  7.36248 7.36616 7.36985 7.37353 7.37722 7.38091
 7.3846  7.38829 7.39199 7.39569 7.39938 7.40309 7.40679 7.41049 7.4142
 7.41791 7.42162 7.42533 7.42904 7.43276 7.43647 7.44019 7.44391 7.44764
 7.45136 7.45509 7.45882 7.46255 7.46628 7.47001 7.47375 7.47749 7.48123
 7.48497 7.48871 7.49246 7.4962  7.49995 7.5037  7.50746 7.51121 7.51497
 7.51873 7.52249 7.52625 7.53001 7.53378 7.53755 7.54132 7.54509 7.54886
 7.55264 7.55641 7.56019 7.56397 7.56776 7.57154 7.57533 7.57912 7.58291
 7.5867  7.5905  7.59429 7.59809 7.60189 7.60569 7.6095  7.6133  7.61711
 7.62092 7.62473 7.62854 7.63236 7.63618 7.63999 7.64382 7.64764]
[5.25892816e-17 5.54693853e-17 5.84912943e-17 6.16708802e-17
 6.49951865e-17 6.84908507e-17 7.21547578e-17 7.59938473e-17
 8.00277145e-17 8.42394663e-17 8.86622206e-17 9.32914687e-17
 9.81353752e-17 1.03202348e-16 1.08501040e-16 1.14057415e-16
 1.19847280e-16 1.25914989e-16 1.32253245e-16 1.38872075e-16
 1.45802973e-16 1.53015032e-16 1.60562486e-16 1.68435373e-16
 1.76645226e-16 1.85203892e-16 1.94123547e-16 2.03445119e-16
 2.13125917e-16 2.23237364e-16 2.33765078e-16 2.44723692e-16
 2.56163339e-16 2.68032327e-16 2.80419220e-16 2.93308635e-16
 3.06722011e-16 3.20683533e-16 3.35221001e-16 3.50412986e-16
 3.66256246e-16 3.82748020e-16 4.00044503e-16 4.18224886e-16
 4.37271953e-16 4.57412697e-16 4.78670898e-16 5.01353595e-16
 5.25627823e-16 5.51780410e-16 5.80258206e-16 6.11342129e-16
 6.45775268e-16 6.84161381e-16 7.27348504e-16 7.76369811e-16
 8.32652699e-16 8.97371548e-16 9.72710182e-16 1.06062802e-15
 1.16363259e-15 1.28464140e-15 1.42701890e-15 1.59514349e-15
 1.79301884e-15 2.02556278e-15 2.29822635e-15 2.61698259e-15
 2.98829646e-15 3.42043048e-15 3.91970803e-15 4.49372129e-15
 5.15018671e-15 5.89677810e-15 6.74354749e-15 7.69254080e-15
 8.75559344e-15 9.93538510e-15 1.12359177e-14 1.26639305e-14
 1.42116380e-14 1.58863980e-14 1.76797612e-14 1.95792538e-14
 2.15923436e-14 2.36894275e-14 2.58671356e-14 2.80944634e-14
 3.03631844e-14 3.26432002e-14 3.49087034e-14 3.71385851e-14
 3.92912982e-14 4.13500375e-14 4.32792415e-14 4.50505592e-14
 4.66372074e-14 4.80183274e-14 4.91643235e-14 5.00636517e-14
 5.06985154e-14 5.10592559e-14 5.10661415e-14 5.11409753e-14
 5.11389899e-14 5.09427104e-14 5.09319097e-14 5.04705267e-14
 5.04493983e-14 4.97314424e-14 4.97038909e-14 4.87407113e-14
 4.87054852e-14 4.75167362e-14 4.74744787e-14 4.60771079e-14
 4.60285495e-14 4.44551163e-14 4.44011069e-14 4.26688909e-14
 4.26103108e-14 4.07519459e-14 4.06897302e-14 3.87342396e-14
 3.86693382e-14 3.66458458e-14 3.65792007e-14 3.45162571e-14
 3.44487811e-14 3.23676141e-14 3.23001735e-14 3.02326892e-14
 3.01660889e-14 2.81359179e-14 2.80708843e-14 2.60990789e-14
 2.60362503e-14 2.41410246e-14 2.40809441e-14 2.22775180e-14
 2.22206299e-14 2.05163165e-14 2.04629767e-14 1.88724593e-14
 1.88229181e-14 1.73524867e-14 1.73069019e-14 1.59600978e-14
 1.59185421e-14 1.46964005e-14 1.46588697e-14 1.35571459e-14
 1.35235802e-14 1.25456260e-14 1.25158861e-14 1.16512254e-14
 1.16251473e-14 1.08708132e-14 1.08481857e-14 1.01972005e-14
 1.01777864e-14 9.62100608e-15 9.60455896e-15 9.13717892e-15
 9.12342691e-15 8.73445599e-15 8.72314093e-15 8.40584928e-15
 8.39670946e-15 8.14309522e-15 8.13587835e-15 7.93829501e-15
 7.93276206e-15 7.78364857e-15 7.77958034e-15 7.67031720e-15
 7.59804104e-15 7.55740867e-15 7.54332502e-15 7.55129384e-15
 7.57748383e-15 7.61847613e-15 7.67117253e-15 7.73338297e-15
 7.80307690e-15 7.87810197e-15 7.95741369e-15 8.03936081e-15
 8.12341220e-15 8.20852793e-15 8.29428711e-15 8.37967144e-15
 8.46472264e-15 8.54860976e-15 8.63151402e-15 8.71318580e-15
 8.79297132e-15 8.87093625e-15 8.94715130e-15 9.02127487e-15
 9.09320190e-15 9.16283945e-15 9.23028865e-15 9.29509777e-15
 9.35755884e-15 9.41742230e-15 9.47462747e-15 9.52911747e-15
 9.58097906e-15 9.63000600e-15 9.67602657e-15 9.71925265e-15
 9.75961798e-15 9.79686004e-15 9.83114962e-15 9.86226370e-15
 9.89034492e-15 9.91527526e-15 9.93708632e-15 9.95563637e-15
 9.97100997e-15 9.98313623e-15 9.99200322e-15 9.99760225e-15
 9.99992781e-15 9.99897045e-15 9.99473638e-15 9.98720639e-15
 9.97639509e-15 9.96226985e-15 9.94492219e-15 9.92427373e-15
 9.90038820e-15 9.87328918e-15 9.84300340e-15 9.80956066e-15
 9.77288908e-15 9.73322550e-15 9.69039097e-15 9.64453218e-15
 9.59555607e-15 9.54377790e-15 9.48896446e-15 9.43130687e-15
 9.37086088e-15 9.30768472e-15 9.24183896e-15 9.17319589e-15
 9.10199730e-15 9.02831077e-15 8.95220587e-15 8.87375401e-15
 8.79302834e-15 8.70987477e-15 8.62458713e-15 8.53724378e-15
 8.44792436e-15 8.35645933e-15 8.26342650e-15 8.16840357e-15
 8.07172522e-15 7.97347648e-15 7.87374291e-15 7.77233467e-15
 7.66960712e-15 7.56593010e-15 7.46054331e-15 7.35438175e-15
 7.24725004e-15 7.13894205e-15 7.02983329e-15 6.92001051e-15
 6.80955983e-15 6.69856667e-15 6.58681467e-15 6.47498850e-15
 6.36256846e-15 6.24993768e-15 6.13687388e-15 6.02406315e-15
 5.91097766e-15 5.79799801e-15 5.68520003e-15 5.57265785e-15
 5.46044393e-15 5.34832973e-15 5.23668593e-15 5.12557996e-15
 5.01507728e-15 4.90524133e-15 4.79584275e-15 4.68752438e-15
 4.57976443e-15 4.47290895e-15 4.36673001e-15 4.26184341e-15
 4.15773865e-15 4.05474351e-15 3.95290239e-15 3.85225739e-15
 3.75284828e-15 3.65445323e-15 3.55737375e-15 3.46164293e-15
 3.36729160e-15 3.27434827e-15 3.18259841e-15 3.09255154e-15
 3.00375190e-15 2.91646009e-15 2.83046886e-15 2.74624754e-15
 2.66336399e-15 2.58205453e-15 2.50232861e-15 2.42419368e-15
 2.34745548e-15 2.27252158e-15 2.19899842e-15 2.12708594e-15
 2.05678255e-15 1.98790629e-15 1.92081383e-15 1.85514562e-15
 1.79107234e-15 1.72858461e-15 1.66767168e-15 1.60816773e-15
 1.55022129e-15 1.49396340e-15 1.43894138e-15 1.38557536e-15]

Integrated fluxes of aliphatic features
6.9 micron feature 5.452330590041049e-15
7.2 micron feature 4.8929734162532386e-15
S/N of 6.9: 2.2390176661717125
S/N of 7.2: 0.956531540589626

Section 2: 7.7 micron complex
Gaussian fitting parameters for 7.7 micron complex
[7.50545804e-14 7.57989192e+00 1.12686092e-01 3.25635381e-13
 7.96184128e+00 1.65321898e-01 7.38119441e-14 8.39189392e+00
 1.62947255e-01 6.29789866e-14 8.70000000e+00 1.15194337e-01]
Errors on fitting parameters
[3.43800530e-15 8.55615569e-03 6.32838260e-03 2.20750162e-15
 2.81827835e-03 4.99833803e-03 2.91965795e-15 1.55304190e-02
 1.60434657e-02 3.66274626e-15 0.00000000e+00 4.75075555e-03]
Fit model - 7.7 micron complex
[7.10214 7.1057  7.10925 7.11281 7.11636 7.11992 7.12348 7.12705 7.13061
 7.13418 7.13774 7.14131 7.14489 7.14846 7.15203 7.15561 7.15919 7.16277
 7.16635 7.16994 7.17352 7.17711 7.1807  7.18429 7.18788 7.19148 7.19508
 7.19867 7.20227 7.20588 7.20948 7.21309 7.21669 7.2203  7.22391 7.22753
 7.23114 7.23476 7.23838 7.242   7.24562 7.24924 7.25287 7.25649 7.26012
 7.26375 7.26739 7.27102 7.27466 7.2783  7.28194 7.28558 7.28922 7.29287
 7.29651 7.30016 7.30381 7.30747 7.31112 7.31478 7.31844 7.3221  7.32576
 7.32942 7.33309 7.33676 7.34043 7.3441  7.34777 7.35144 7.35512 7.3588
 7.36248 7.36616 7.36985 7.37353 7.37722 7.38091 7.3846  7.38829 7.39199
 7.39569 7.39938 7.40309 7.40679 7.41049 7.4142  7.41791 7.42162 7.42533
 7.42904 7.43276 7.43647 7.44019 7.44391 7.44764 7.45136 7.45509 7.45882
 7.46255 7.46628 7.47001 7.47375 7.47749 7.48123 7.48497 7.48871 7.49246
 7.4962  7.49995 7.5037  7.50746 7.51121 7.51497 7.51873 7.52249 7.52625
 7.53001 7.53378 7.53755 7.54132 7.54509 7.54886 7.55264 7.55641 7.56019
 7.56397 7.56776 7.57154 7.57533 7.57912 7.58291 7.5867  7.5905  7.59429
 7.59809 7.60189 7.60569 7.6095  7.6133  7.61711 7.62092 7.62473 7.62854
 7.63236 7.63618 7.63999 7.64382 7.64764 7.65146 7.65529 7.65912 7.66295
 7.66678 7.67062 7.67445 7.67829 7.68213 7.68597 7.68982 7.69366 7.69751
 7.70136 7.70521 7.70906 7.71292 7.71678 7.72064 7.7245  7.72836 7.73223
 7.73609 7.73996 7.74383 7.74771 7.75158 7.75546 7.75934 7.76322 7.7671
 7.77098 7.77487 7.77876 7.78265 7.78654 7.79044 7.79433 7.79823 7.80213
 7.80603 7.80994 7.81384 7.81775 7.82166 7.82557 7.82949 7.8334  7.83732
 7.84124 7.84516 7.84908 7.85301 7.85694 7.86087 7.8648  7.86873 7.87267
 7.8766  7.88054 7.88448 7.88843 7.89237 7.89632 7.90027 7.90422 7.90817
 7.91213 7.91609 7.92004 7.92401 7.92797 7.93193 7.9359  7.93987 7.94384
 7.94781 7.95179 7.95577 7.95974 7.96372 7.96771 7.97169 7.97568 7.97967
 7.98366 7.98765 7.99165 7.99564 7.99964 8.00364 8.00765 8.01165 8.01566
 8.01967 8.02368 8.02769 8.0317  8.03572 8.03974 8.04376 8.04778 8.05181
 8.05584 8.05986 8.0639  8.06793 8.07196 8.076   8.08004 8.08408 8.08812
 8.09217 8.09622 8.10027 8.10432 8.10837 8.11242 8.11648 8.12054 8.1246
 8.12867 8.13273 8.1368  8.14087 8.14494 8.14901 8.15309 8.15717 8.16125
 8.16533 8.16941 8.1735  8.17758 8.18167 8.18577 8.18986 8.19396 8.19805
 8.20215 8.20626 8.21036 8.21447 8.21857 8.22268 8.2268  8.23091 8.23503
 8.23915 8.24327 8.24739 8.25152 8.25564 8.25977 8.2639  8.26803 8.27217
 8.27631 8.28045 8.28459 8.28873 8.29288 8.29702 8.30117 8.30532 8.30948
 8.31363 8.31779 8.32195 8.32611 8.33028 8.33444 8.33861 8.34278 8.34696
 8.35113 8.35531 8.35948 8.36367 8.36785 8.37203 8.37622 8.38041 8.3846
 8.38879 8.39299 8.39719 8.40139 8.40559 8.40979 8.414   8.41821 8.42242
 8.42663 8.43084 8.43506 8.43928 8.4435  8.44772 8.45195 8.45617 8.4604
 8.46463 8.46887 8.4731  8.47734 8.48158 8.48582 8.49007 8.49431 8.49856
 8.50281 8.50706 8.51132 8.51558 8.51983 8.52409 8.52836 8.53262 8.53689
 8.54116 8.54543 8.54971 8.55398 8.55826 8.56254 8.56682 8.57111 8.57539
 8.57968 8.58397 8.58827 8.59256 8.59686 8.60116 8.60546 8.60976 8.61407
 8.61838 8.62269 8.627   8.63131 8.63563 8.63995 8.64427 8.64859 8.65292
 8.65725 8.66158 8.66591 8.67024 8.67458 8.67892 8.68326 8.6876  8.69195
 8.69629 8.70064 8.70499 8.70935 8.7137  8.71806 8.72242 8.72678 8.73115
 8.73551 8.73988 8.74425 8.74863 8.753   8.75738 8.76176 8.76614 8.77053
 8.77491 8.7793  8.78369 8.78808 8.79248 8.79688 8.80128 8.80568 8.81008
 8.81449 8.8189  8.82331 8.82772 8.83214 8.83655 8.84097 8.84539 8.84982
 8.85424 8.85867 8.8631  8.86753 8.87197 8.87641 8.88085 8.88529 8.88973
 8.89418 8.89863]
[9.81709706e-18 1.12078079e-17 1.27786032e-17 1.45610055e-17
 1.65701069e-17 1.88452016e-17 2.14120592e-17 2.43137338e-17
 2.75721519e-17 3.12479656e-17 3.53671369e-17 4.00043077e-17
 4.52208049e-17 5.10501081e-17 5.75745772e-17 6.48910341e-17
 7.30653039e-17 8.21882819e-17 9.23592681e-17 1.03719966e-16
 1.16325405e-16 1.30375238e-16 1.45976848e-16 1.63282986e-16
 1.82459188e-16 2.03746760e-16 2.27290201e-16 2.53224346e-16
 2.81920200e-16 3.13645556e-16 3.48487787e-16 3.86923845e-16
 4.29043259e-16 4.75404766e-16 5.26244395e-16 5.82094183e-16
 6.43041154e-16 7.09845016e-16 7.82793330e-16 8.62361716e-16
 9.49053220e-16 1.04339896e-15 1.14625392e-15 1.25764166e-15
 1.37879971e-15 1.51008640e-15 1.65259252e-15 1.80625062e-15
 1.97265563e-15 2.15218045e-15 2.34563438e-15 2.55385529e-15
 2.77770870e-15 3.01877051e-15 3.27663887e-15 3.55367653e-15
 3.85016907e-15 4.16800274e-15 4.50644876e-15 4.86838742e-15
 5.25396054e-15 5.66421478e-15 6.10020068e-15 6.56296855e-15
 7.05494368e-15 7.57594407e-15 8.12700078e-15 8.70912556e-15
 9.32330538e-15 9.97049682e-15 1.06535232e-14 1.13715518e-14
 1.21254185e-14 1.29159041e-14 1.37460282e-14 1.46119434e-14
 1.55189343e-14 1.64651978e-14 1.74511433e-14 1.84770849e-14
 1.95461803e-14 2.06558105e-14 2.18028064e-14 2.29965318e-14
 2.42272490e-14 2.54977445e-14 2.68111028e-14 2.81632955e-14
 2.95535358e-14 3.09808964e-14 3.24443083e-14 3.39466454e-14
 3.54784758e-14 3.70465572e-14 3.86451635e-14 4.02769296e-14
 4.19311942e-14 4.36148068e-14 4.53211868e-14 4.70480529e-14
 4.87930205e-14 5.05536103e-14 5.23320300e-14 5.41209232e-14
 5.59175731e-14 5.77192159e-14 5.95230543e-14 6.13310912e-14
 6.31308589e-14 6.49291602e-14 6.67183786e-14 6.85004837e-14
 7.02633021e-14 7.20136131e-14 7.37441664e-14 7.54525493e-14
 7.71364825e-14 7.87938371e-14 8.04269426e-14 8.20295599e-14
 8.36000925e-14 8.51371569e-14 8.66395951e-14 8.81103297e-14
 8.95409057e-14 9.09384959e-14 9.22991080e-14 9.36263208e-14
 9.49135366e-14 9.61682586e-14 9.73880144e-14 9.85740721e-14
 9.97279851e-14 1.00854514e-13 1.01949846e-13 1.03022154e-13
 1.04071172e-13 1.05099811e-13 1.06113862e-13 1.07111386e-13
 1.08101236e-13 1.09084577e-13 1.10065388e-13 1.11047807e-13
 1.12038710e-13 1.13039939e-13 1.14053321e-13 1.15091482e-13
 1.16150992e-13 1.17239172e-13 1.18363637e-13 1.19526217e-13
 1.20731493e-13 1.21983965e-13 1.23291504e-13 1.24651576e-13
 1.26075418e-13 1.27563522e-13 1.29119659e-13 1.30751714e-13
 1.32454526e-13 1.34240036e-13 1.36106706e-13 1.38057045e-13
 1.40093250e-13 1.42222831e-13 1.44442171e-13 1.46752483e-13
 1.49154625e-13 1.51649097e-13 1.54242856e-13 1.56922265e-13
 1.59700598e-13 1.62570056e-13 1.65537046e-13 1.68584552e-13
 1.71726226e-13 1.74951845e-13 1.78258595e-13 1.81643316e-13
 1.85102513e-13 1.88641553e-13 1.92247455e-13 1.95915756e-13
 1.99641709e-13 2.03430071e-13 2.07256128e-13 2.11134010e-13
 2.15048160e-13 2.18992597e-13 2.22971353e-13 2.26957727e-13
 2.30965642e-13 2.34978232e-13 2.38988724e-13 2.43000471e-13
 2.46986058e-13 2.50958850e-13 2.54901564e-13 2.58807122e-13
 2.62668459e-13 2.66488186e-13 2.70249350e-13 2.73944979e-13
 2.77568186e-13 2.81112190e-13 2.84579019e-13 2.87944546e-13
 2.91219505e-13 2.94388981e-13 2.97454551e-13 3.00394850e-13
 3.03219164e-13 3.05914466e-13 3.08475593e-13 3.10897649e-13
 3.13181594e-13 3.15316752e-13 3.17294247e-13 3.19124752e-13
 3.20790401e-13 3.22292891e-13 3.23632608e-13 3.24803094e-13
 3.25802238e-13 3.26628283e-13 3.27281247e-13 3.27757775e-13
 3.28056647e-13 3.28179039e-13 3.28123645e-13 3.27891134e-13
 3.27481091e-13 3.26894987e-13 3.26134284e-13 3.25200793e-13
 3.24093681e-13 3.22820972e-13 3.21379107e-13 3.19774210e-13
 3.18005128e-13 3.16084440e-13 3.14006602e-13 3.11780562e-13
 3.09410923e-13 3.06902537e-13 3.04260488e-13 3.01483015e-13
 2.98582089e-13 2.95563445e-13 2.92432991e-13 2.89188612e-13
 2.85844205e-13 2.82414777e-13 2.78880874e-13 2.75274974e-13
 2.71595058e-13 2.67838418e-13 2.64020845e-13 2.60149103e-13
 2.56229948e-13 2.52260267e-13 2.48256448e-13 2.44225174e-13
 2.40173055e-13 2.36106607e-13 2.32032240e-13 2.27946179e-13
 2.23864671e-13 2.19793756e-13 2.15729347e-13 2.11697121e-13
 2.07682745e-13 2.03701517e-13 1.99758559e-13 1.95858766e-13
 1.91997398e-13 1.88188542e-13 1.84436398e-13 1.80744907e-13
 1.77117747e-13 1.73549690e-13 1.70061330e-13 1.66638446e-13
 1.63284202e-13 1.60017294e-13 1.56823810e-13 1.53721108e-13
 1.50695523e-13 1.47748917e-13 1.44896597e-13 1.42125354e-13
 1.39449114e-13 1.36855007e-13 1.34343618e-13 1.31926833e-13
 1.29592348e-13 1.27345383e-13 1.25184950e-13 1.23109856e-13
 1.21113979e-13 1.19205404e-13 1.17373110e-13 1.15619904e-13
 1.13943710e-13 1.12338527e-13 1.10806150e-13 1.09344111e-13
 1.07949843e-13 1.06620691e-13 1.05350942e-13 1.04143926e-13
 1.02990967e-13 1.01892166e-13 1.00842160e-13 9.98430817e-14
 9.88872036e-14 9.79740905e-14 9.71008767e-14 9.62627748e-14
 9.54610365e-14 9.46891004e-14 9.39463024e-14 9.32284149e-14
 9.25364297e-14 9.18646886e-14 9.12141941e-14 9.05782382e-14
 8.99594779e-14 8.93545614e-14 8.87604198e-14 8.81769958e-14
 8.76029293e-14 8.70370241e-14 8.64769248e-14 8.59231237e-14
 8.53749236e-14 8.48317972e-14 8.42933862e-14 8.37582331e-14
 8.32275966e-14 8.27016086e-14 8.21805562e-14 8.16648749e-14
 8.11539386e-14 8.06496938e-14 8.01529806e-14 7.96647532e-14
 7.91849471e-14 7.87169818e-14 7.82598727e-14 7.78160423e-14
 7.73858458e-14 7.69727017e-14 7.65760706e-14 7.61983692e-14
 7.58410053e-14 7.55045924e-14 7.51920481e-14 7.49031733e-14
 7.46399296e-14 7.44034165e-14 7.41941614e-14 7.40136146e-14
 7.38628116e-14 7.37415965e-14 7.36505629e-14 7.35903317e-14
 7.35606161e-14 7.35613800e-14 7.35921914e-14 7.36525676e-14
 7.37413366e-14 7.38577855e-14 7.40003711e-14 7.41674872e-14
 7.43577604e-14 7.45682265e-14 7.47975589e-14 7.50427568e-14
 7.53016946e-14 7.55702263e-14 7.58464707e-14 7.61265079e-14
 7.64068851e-14 7.66840219e-14 7.69548490e-14 7.72149200e-14
 7.74603781e-14 7.76873319e-14 7.78918812e-14 7.80705236e-14
 7.82188928e-14 7.83331971e-14 7.84097448e-14 7.84450014e-14
 7.84353086e-14 7.83774101e-14 7.82682542e-14 7.81050162e-14
 7.78845452e-14 7.76048319e-14 7.72638428e-14 7.68598495e-14
 7.63902873e-14 7.58562329e-14 7.52544802e-14 7.45857837e-14
 7.38483260e-14 7.30457928e-14 7.21751490e-14 7.12391660e-14
 7.02391866e-14 6.91743767e-14 6.80516035e-14 6.68680206e-14
 6.56287306e-14 6.43335832e-14 6.29916106e-14 6.16000254e-14
 6.01654061e-14 5.86914934e-14 5.71786960e-14 5.56379303e-14
 5.40662948e-14 5.24714851e-14 5.08577564e-14 4.92256562e-14
 4.75831294e-14 4.59344272e-14 4.42837390e-14 4.26351680e-14
 4.09889861e-14 3.93528357e-14 3.77304590e-14 3.61254305e-14
 3.45375754e-14 3.29772795e-14 3.14404673e-14 2.99334922e-14
 2.84556156e-14 2.70158395e-14 2.56097476e-14 2.42424994e-14
 2.29157157e-14 2.16279265e-14 2.03833273e-14 1.91828401e-14
 1.80271610e-14 1.69167685e-14 1.58495855e-14 1.48282354e-14]
Integrated fluxes
Total integrated flux of complex: 1.862633883815915e-13
Section 3: 11.2 micron feature
Integrated flux of 11.2 micron feature:
2.461092400406756e-14
