iras17347_SWS_CWsubFitting and integrated flux data

Section 1: Aliphatic features
Gaussian fitting parameters for 6.9 and 7.2 micron features
[4.79910272e-14 6.94573942e+00 4.53244132e-02 1.00000000e-14
 7.25000000e+00 2.00000000e-01]
Errors on aliphatic fitting parameters
[4.88957060e-15 5.47055685e-03 4.26676474e-03 0.00000000e+00
 0.00000000e+00 0.00000000e+00]
Fit model - aliphatic features
[6.60206 6.60536 6.60866 6.61197 6.61527 6.61858 6.62189 6.6252  6.62852
 6.63183 6.63515 6.63847 6.64179 6.64511 6.64843 6.65176 6.65508 6.65841
 6.66174 6.66507 6.66841 6.67174 6.67508 6.67842 6.68176 6.6851  6.68844
 6.69179 6.69513 6.69848 6.70183 6.70518 6.70854 6.71189 6.71525 6.71861
 6.72197 6.72533 6.72869 6.73206 6.73543 6.73879 6.74216 6.74554 6.74891
 6.75229 6.75566 6.75904 6.76242 6.7658  6.76919 6.77257 6.77596 6.77935
 6.78274 6.78613 6.78953 6.79292 6.79632 6.79972 6.80312 6.80652 6.80992
 6.81333 6.81674 6.82015 6.82356 6.82697 6.83038 6.8338  6.83722 6.84064
 6.84406 6.84748 6.85091 6.85433 6.85776 6.86119 6.86462 6.86806 6.87149
 6.87493 6.87837 6.8818  6.88525 6.88869 6.89214 6.89558 6.89903 6.90248
 6.90593 6.90939 6.91284 6.9163  6.91976 6.92322 6.92668 6.93015 6.93361
 6.93708 6.94055 6.94402 6.94413 6.94749 6.9476  6.95097 6.95108 6.95444
 6.95456 6.95792 6.95803 6.9614  6.96151 6.96488 6.96499 6.96837 6.96848
 6.97185 6.97196 6.97534 6.97545 6.97883 6.97894 6.98232 6.98243 6.98581
 6.98592 6.9893  6.98941 6.9928  6.99291 6.9963  6.99641 6.9998  6.99991
 7.0033  7.00341 7.0068  7.00691 7.0103  7.01041 7.01381 7.01392 7.01732
 7.01743 7.02083 7.02094 7.02434 7.02445 7.02785 7.02796 7.03137 7.03148
 7.03488 7.03499 7.0384  7.03851 7.04192 7.04203 7.04544 7.04555 7.04897
 7.04908 7.05249 7.0526  7.05602 7.05613 7.05955 7.05966 7.06308 7.06319
 7.06661 7.06672 7.07015 7.07026 7.07379 7.07733 7.08087 7.08441 7.08795
 7.0915  7.09505 7.09859 7.10214 7.1057  7.10925 7.11281 7.11636 7.11992
 7.12348 7.12705 7.13061 7.13418 7.13774 7.14131 7.14489 7.14846 7.15203
 7.15561 7.15919 7.16277 7.16635 7.16994 7.17352 7.17711 7.1807  7.18429
 7.18788 7.19148 7.19508 7.19867 7.20227 7.20588 7.20948 7.21309 7.21669
 7.2203  7.22391 7.22753 7.23114 7.23476 7.23838 7.242   7.24562 7.24924
 7.25287 7.25649 7.26012 7.26375 7.26739 7.27102 7.27466 7.2783  7.28194
 7.28558 7.28922 7.29287 7.29651 7.30016 7.30381 7.30747 7.31112 7.31478
 7.31844 7.3221  7.32576 7.32942 7.33309 7.33676 7.34043 7.3441  7.34777
 7.35144 7.35512 7.3588  7.36248 7.36616 7.36985 7.37353 7.37722 7.38091
 7.3846  7.38829 7.39199 7.39569 7.39938 7.40309 7.40679 7.41049 7.4142
 7.41791 7.42162 7.42533 7.42904 7.43276 7.43647 7.44019 7.44391 7.44764
 7.45136 7.45509 7.45882 7.46255 7.46628 7.47001 7.47375 7.47749 7.48123
 7.48497 7.48871 7.49246 7.4962  7.49995 7.5037  7.50746 7.51121 7.51497
 7.51873 7.52249 7.52625 7.53001 7.53378 7.53755 7.54132 7.54509 7.54886
 7.55264 7.55641 7.56019 7.56397 7.56776 7.57154 7.57533 7.57912 7.58291
 7.5867  7.5905  7.59429 7.59809 7.60189 7.60569 7.6095  7.6133  7.61711
 7.62092 7.62473 7.62854 7.63236 7.63618 7.63999 7.64382 7.64764]
[5.25892816e-17 5.54693853e-17 5.84912943e-17 6.16708802e-17
 6.49951865e-17 6.84908507e-17 7.21547578e-17 7.59938473e-17
 8.00277145e-17 8.42394663e-17 8.86622206e-17 9.32914687e-17
 9.81353752e-17 1.03202348e-16 1.08501040e-16 1.14057415e-16
 1.19847280e-16 1.25914989e-16 1.32253245e-16 1.38872075e-16
 1.45802973e-16 1.53015032e-16 1.60562486e-16 1.68435373e-16
 1.76645226e-16 1.85203892e-16 1.94123547e-16 2.03445119e-16
 2.13125917e-16 2.23237364e-16 2.33765078e-16 2.44723692e-16
 2.56163339e-16 2.68032327e-16 2.80419220e-16 2.93308634e-16
 3.06722011e-16 3.20683533e-16 3.35221001e-16 3.50412986e-16
 3.66256245e-16 3.82748020e-16 4.00044502e-16 4.18224885e-16
 4.37271952e-16 4.57412695e-16 4.78670896e-16 5.01353591e-16
 5.25627819e-16 5.51780405e-16 5.80258199e-16 6.11342120e-16
 6.45775256e-16 6.84161366e-16 7.27348485e-16 7.76369786e-16
 8.32652668e-16 8.97371509e-16 9.72710133e-16 1.06062796e-15
 1.16363252e-15 1.28464131e-15 1.42701879e-15 1.59514336e-15
 1.79301868e-15 2.02556259e-15 2.29822612e-15 2.61698232e-15
 2.98829615e-15 3.42043011e-15 3.91970760e-15 4.49372080e-15
 5.15018615e-15 5.89677746e-15 6.74354677e-15 7.69253999e-15
 8.75559253e-15 9.93538410e-15 1.12359166e-14 1.26639293e-14
 1.42116367e-14 1.58863966e-14 1.76797597e-14 1.95792522e-14
 2.15923419e-14 2.36894258e-14 2.58671338e-14 2.80944615e-14
 3.03631825e-14 3.26431982e-14 3.49087015e-14 3.71385831e-14
 3.92912963e-14 4.13500357e-14 4.32792397e-14 4.50505574e-14
 4.66372058e-14 4.80183259e-14 4.91643221e-14 5.00636505e-14
 5.06985143e-14 5.10592549e-14 5.10661406e-14 5.11409745e-14
 5.11389891e-14 5.09427097e-14 5.09319090e-14 5.04705261e-14
 5.04493977e-14 4.97314419e-14 4.97038905e-14 4.87407110e-14
 4.87054849e-14 4.75167360e-14 4.74744785e-14 4.60771079e-14
 4.60285494e-14 4.44551164e-14 4.44011070e-14 4.26688910e-14
 4.26103109e-14 4.07519461e-14 4.06897304e-14 3.87342398e-14
 3.86693384e-14 3.66458461e-14 3.65792010e-14 3.45162574e-14
 3.44487815e-14 3.23676145e-14 3.23001739e-14 3.02326896e-14
 3.01660892e-14 2.81359183e-14 2.80708847e-14 2.60990792e-14
 2.60362507e-14 2.41410250e-14 2.40809445e-14 2.22775184e-14
 2.22206303e-14 2.05163168e-14 2.04629771e-14 1.88724597e-14
 1.88229184e-14 1.73524870e-14 1.73069022e-14 1.59600981e-14
 1.59185423e-14 1.46964008e-14 1.46588700e-14 1.35571462e-14
 1.35235804e-14 1.25456262e-14 1.25158863e-14 1.16512256e-14
 1.16251475e-14 1.08708133e-14 1.08481859e-14 1.01972007e-14
 1.01777865e-14 9.62100619e-15 9.60455907e-15 9.13717901e-15
 9.12342700e-15 8.73445606e-15 8.72314100e-15 8.40584934e-15
 8.39670952e-15 8.14309527e-15 8.13587840e-15 7.93829505e-15
 7.93276210e-15 7.78364860e-15 7.77958037e-15 7.67031722e-15
 7.59804106e-15 7.55740869e-15 7.54332503e-15 7.55129385e-15
 7.57748384e-15 7.61847614e-15 7.67117253e-15 7.73338297e-15
 7.80307690e-15 7.87810197e-15 7.95741369e-15 8.03936081e-15
 8.12341220e-15 8.20852793e-15 8.29428711e-15 8.37967144e-15
 8.46472264e-15 8.54860976e-15 8.63151402e-15 8.71318580e-15
 8.79297132e-15 8.87093625e-15 8.94715130e-15 9.02127487e-15
 9.09320190e-15 9.16283945e-15 9.23028865e-15 9.29509777e-15
 9.35755884e-15 9.41742230e-15 9.47462747e-15 9.52911747e-15
 9.58097906e-15 9.63000600e-15 9.67602657e-15 9.71925265e-15
 9.75961798e-15 9.79686004e-15 9.83114962e-15 9.86226370e-15
 9.89034492e-15 9.91527526e-15 9.93708632e-15 9.95563637e-15
 9.97100997e-15 9.98313623e-15 9.99200322e-15 9.99760225e-15
 9.99992781e-15 9.99897045e-15 9.99473638e-15 9.98720639e-15
 9.97639509e-15 9.96226985e-15 9.94492219e-15 9.92427373e-15
 9.90038820e-15 9.87328918e-15 9.84300340e-15 9.80956066e-15
 9.77288908e-15 9.73322550e-15 9.69039097e-15 9.64453218e-15
 9.59555607e-15 9.54377790e-15 9.48896446e-15 9.43130687e-15
 9.37086088e-15 9.30768472e-15 9.24183896e-15 9.17319589e-15
 9.10199730e-15 9.02831077e-15 8.95220587e-15 8.87375401e-15
 8.79302834e-15 8.70987477e-15 8.62458713e-15 8.53724378e-15
 8.44792436e-15 8.35645933e-15 8.26342650e-15 8.16840357e-15
 8.07172522e-15 7.97347648e-15 7.87374291e-15 7.77233467e-15
 7.66960712e-15 7.56593010e-15 7.46054331e-15 7.35438175e-15
 7.24725004e-15 7.13894205e-15 7.02983329e-15 6.92001051e-15
 6.80955983e-15 6.69856667e-15 6.58681467e-15 6.47498850e-15
 6.36256846e-15 6.24993768e-15 6.13687388e-15 6.02406315e-15
 5.91097766e-15 5.79799801e-15 5.68520003e-15 5.57265785e-15
 5.46044393e-15 5.34832973e-15 5.23668593e-15 5.12557996e-15
 5.01507728e-15 4.90524133e-15 4.79584275e-15 4.68752438e-15
 4.57976443e-15 4.47290895e-15 4.36673001e-15 4.26184341e-15
 4.15773865e-15 4.05474351e-15 3.95290239e-15 3.85225739e-15
 3.75284828e-15 3.65445323e-15 3.55737375e-15 3.46164293e-15
 3.36729160e-15 3.27434827e-15 3.18259841e-15 3.09255154e-15
 3.00375190e-15 2.91646009e-15 2.83046886e-15 2.74624754e-15
 2.66336399e-15 2.58205453e-15 2.50232861e-15 2.42419368e-15
 2.34745548e-15 2.27252158e-15 2.19899842e-15 2.12708594e-15
 2.05678255e-15 1.98790629e-15 1.92081383e-15 1.85514562e-15
 1.79107234e-15 1.72858461e-15 1.66767168e-15 1.60816773e-15
 1.55022129e-15 1.49396340e-15 1.43894138e-15 1.38557536e-15]

Integrated fluxes of aliphatic features
6.9 micron feature 5.452330444264226e-15
7.2 micron feature 4.8929734162532386e-15
S/N of 6.9: 2.239017614960718
S/N of 7.2: 0.956531540589626

Section 2: 7.7 micron complex
Gaussian fitting parameters for 7.7 micron complex
[7.50544872e-14 7.57989161e+00 1.12686026e-01 3.25635391e-13
 7.96184128e+00 1.65322023e-01 7.38118748e-14 8.39189424e+00
 1.62947090e-01 6.29789947e-14 8.70000000e+00 1.15194332e-01]
Errors on fitting parameters
[3.43785776e-15 8.55570008e-03 6.32821119e-03 2.20712115e-15
 2.81808092e-03 4.99808723e-03 2.91950230e-15 1.55291608e-02
 1.60421812e-02 3.66257018e-15 0.00000000e+00 4.75072191e-03]
Fit model - 7.7 micron complex
[7.10214 7.1057  7.10925 7.11281 7.11636 7.11992 7.12348 7.12705 7.13061
 7.13418 7.13774 7.14131 7.14489 7.14846 7.15203 7.15561 7.15919 7.16277
 7.16635 7.16994 7.17352 7.17711 7.1807  7.18429 7.18788 7.19148 7.19508
 7.19867 7.20227 7.20588 7.20948 7.21309 7.21669 7.2203  7.22391 7.22753
 7.23114 7.23476 7.23838 7.242   7.24562 7.24924 7.25287 7.25649 7.26012
 7.26375 7.26739 7.27102 7.27466 7.2783  7.28194 7.28558 7.28922 7.29287
 7.29651 7.30016 7.30381 7.30747 7.31112 7.31478 7.31844 7.3221  7.32576
 7.32942 7.33309 7.33676 7.34043 7.3441  7.34777 7.35144 7.35512 7.3588
 7.36248 7.36616 7.36985 7.37353 7.37722 7.38091 7.3846  7.38829 7.39199
 7.39569 7.39938 7.40309 7.40679 7.41049 7.4142  7.41791 7.42162 7.42533
 7.42904 7.43276 7.43647 7.44019 7.44391 7.44764 7.45136 7.45509 7.45882
 7.46255 7.46628 7.47001 7.47375 7.47749 7.48123 7.48497 7.48871 7.49246
 7.4962  7.49995 7.5037  7.50746 7.51121 7.51497 7.51873 7.52249 7.52625
 7.53001 7.53378 7.53755 7.54132 7.54509 7.54886 7.55264 7.55641 7.56019
 7.56397 7.56776 7.57154 7.57533 7.57912 7.58291 7.5867  7.5905  7.59429
 7.59809 7.60189 7.60569 7.6095  7.6133  7.61711 7.62092 7.62473 7.62854
 7.63236 7.63618 7.63999 7.64382 7.64764 7.65146 7.65529 7.65912 7.66295
 7.66678 7.67062 7.67445 7.67829 7.68213 7.68597 7.68982 7.69366 7.69751
 7.70136 7.70521 7.70906 7.71292 7.71678 7.72064 7.7245  7.72836 7.73223
 7.73609 7.73996 7.74383 7.74771 7.75158 7.75546 7.75934 7.76322 7.7671
 7.77098 7.77487 7.77876 7.78265 7.78654 7.79044 7.79433 7.79823 7.80213
 7.80603 7.80994 7.81384 7.81775 7.82166 7.82557 7.82949 7.8334  7.83732
 7.84124 7.84516 7.84908 7.85301 7.85694 7.86087 7.8648  7.86873 7.87267
 7.8766  7.88054 7.88448 7.88843 7.89237 7.89632 7.90027 7.90422 7.90817
 7.91213 7.91609 7.92004 7.92401 7.92797 7.93193 7.9359  7.93987 7.94384
 7.94781 7.95179 7.95577 7.95974 7.96372 7.96771 7.97169 7.97568 7.97967
 7.98366 7.98765 7.99165 7.99564 7.99964 8.00364 8.00765 8.01165 8.01566
 8.01967 8.02368 8.02769 8.0317  8.03572 8.03974 8.04376 8.04778 8.05181
 8.05584 8.05986 8.0639  8.06793 8.07196 8.076   8.08004 8.08408 8.08812
 8.09217 8.09622 8.10027 8.10432 8.10837 8.11242 8.11648 8.12054 8.1246
 8.12867 8.13273 8.1368  8.14087 8.14494 8.14901 8.15309 8.15717 8.16125
 8.16533 8.16941 8.1735  8.17758 8.18167 8.18577 8.18986 8.19396 8.19805
 8.20215 8.20626 8.21036 8.21447 8.21857 8.22268 8.2268  8.23091 8.23503
 8.23915 8.24327 8.24739 8.25152 8.25564 8.25977 8.2639  8.26803 8.27217
 8.27631 8.28045 8.28459 8.28873 8.29288 8.29702 8.30117 8.30532 8.30948
 8.31363 8.31779 8.32195 8.32611 8.33028 8.33444 8.33861 8.34278 8.34696
 8.35113 8.35531 8.35948 8.36367 8.36785 8.37203 8.37622 8.38041 8.3846
 8.38879 8.39299 8.39719 8.40139 8.40559 8.40979 8.414   8.41821 8.42242
 8.42663 8.43084 8.43506 8.43928 8.4435  8.44772 8.45195 8.45617 8.4604
 8.46463 8.46887 8.4731  8.47734 8.48158 8.48582 8.49007 8.49431 8.49856
 8.50281 8.50706 8.51132 8.51558 8.51983 8.52409 8.52836 8.53262 8.53689
 8.54116 8.54543 8.54971 8.55398 8.55826 8.56254 8.56682 8.57111 8.57539
 8.57968 8.58397 8.58827 8.59256 8.59686 8.60116 8.60546 8.60976 8.61407
 8.61838 8.62269 8.627   8.63131 8.63563 8.63995 8.64427 8.64859 8.65292
 8.65725 8.66158 8.66591 8.67024 8.67458 8.67892 8.68326 8.6876  8.69195
 8.69629 8.70064 8.70499 8.70935 8.7137  8.71806 8.72242 8.72678 8.73115
 8.73551 8.73988 8.74425 8.74863 8.753   8.75738 8.76176 8.76614 8.77053
 8.77491 8.7793  8.78369 8.78808 8.79248 8.79688 8.80128 8.80568 8.81008
 8.81449 8.8189  8.82331 8.82772 8.83214 8.83655 8.84097 8.84539 8.84982
 8.85424 8.85867 8.8631  8.86753 8.87197 8.87641 8.88085 8.88529 8.88973
 8.89418 8.89863]
[9.81710547e-18 1.12078179e-17 1.27786152e-17 1.45610197e-17
 1.65701238e-17 1.88452215e-17 2.14120827e-17 2.43137615e-17
 2.75721845e-17 3.12480037e-17 3.53671814e-17 4.00043596e-17
 4.52208654e-17 5.10501783e-17 5.75746585e-17 6.48911283e-17
 7.30654126e-17 8.21884072e-17 9.23594122e-17 1.03720131e-16
 1.16325595e-16 1.30375455e-16 1.45977096e-16 1.63283268e-16
 1.82459510e-16 2.03747125e-16 2.27290616e-16 2.53224816e-16
 2.81920731e-16 3.13646155e-16 3.48488463e-16 3.86924606e-16
 4.29044114e-16 4.75405725e-16 5.26245469e-16 5.82095385e-16
 6.43042496e-16 7.09846512e-16 7.82794996e-16 8.62363568e-16
 9.49055276e-16 1.04340124e-15 1.14625644e-15 1.25764444e-15
 1.37880278e-15 1.51008979e-15 1.65259625e-15 1.80625471e-15
 1.97266013e-15 2.15218538e-15 2.34563977e-15 2.55386118e-15
 2.77771512e-15 3.01877750e-15 3.27664648e-15 3.55368479e-15
 3.85017803e-15 4.16801244e-15 4.50645925e-15 4.86839875e-15
 5.25397276e-15 5.66422794e-15 6.10021483e-15 6.56298373e-15
 7.05495996e-15 7.57596150e-15 8.12701941e-15 8.70914543e-15
 9.32332656e-15 9.97051935e-15 1.06535472e-14 1.13715772e-14
 1.21254454e-14 1.29159326e-14 1.37460583e-14 1.46119750e-14
 1.55189676e-14 1.64652329e-14 1.74511800e-14 1.84771235e-14
 1.95462206e-14 2.06558526e-14 2.18028502e-14 2.29965775e-14
 2.42272965e-14 2.54977937e-14 2.68111537e-14 2.81633482e-14
 2.95535902e-14 3.09809523e-14 3.24443658e-14 3.39467044e-14
 3.54785362e-14 3.70466189e-14 3.86452264e-14 4.02769936e-14
 4.19312593e-14 4.36148728e-14 4.53212534e-14 4.70481202e-14
 4.87930882e-14 5.05536783e-14 5.23320981e-14 5.41209912e-14
 5.59176409e-14 5.77192831e-14 5.95231210e-14 6.13311569e-14
 6.31309236e-14 6.49292236e-14 6.67184406e-14 6.85005440e-14
 7.02633605e-14 7.20136695e-14 7.37442205e-14 7.54526008e-14
 7.71365314e-14 7.87938831e-14 8.04269856e-14 8.20295996e-14
 8.36001289e-14 8.51371898e-14 8.66396244e-14 8.81103553e-14
 8.95409274e-14 9.09385138e-14 9.22991219e-14 9.36263306e-14
 9.49135423e-14 9.61682603e-14 9.73880120e-14 9.85740658e-14
 9.97279748e-14 1.00854500e-13 1.01949828e-13 1.03022132e-13
 1.04071147e-13 1.05099782e-13 1.06113830e-13 1.07111351e-13
 1.08101199e-13 1.09084537e-13 1.10065346e-13 1.11047763e-13
 1.12038663e-13 1.13039891e-13 1.14053272e-13 1.15091432e-13
 1.16150941e-13 1.17239120e-13 1.18363585e-13 1.19526165e-13
 1.20731442e-13 1.21983914e-13 1.23291455e-13 1.24651528e-13
 1.26075371e-13 1.27563477e-13 1.29119616e-13 1.30751674e-13
 1.32454489e-13 1.34240001e-13 1.36106674e-13 1.38057016e-13
 1.40093224e-13 1.42222809e-13 1.44442153e-13 1.46752468e-13
 1.49154613e-13 1.51649089e-13 1.54242852e-13 1.56922264e-13
 1.59700602e-13 1.62570063e-13 1.65537057e-13 1.68584566e-13
 1.71726244e-13 1.74951866e-13 1.78258620e-13 1.81643343e-13
 1.85102543e-13 1.88641586e-13 1.92247490e-13 1.95915794e-13
 1.99641749e-13 2.03430112e-13 2.07256171e-13 2.11134054e-13
 2.15048205e-13 2.18992643e-13 2.22971400e-13 2.26957774e-13
 2.30965689e-13 2.34978278e-13 2.38988770e-13 2.43000517e-13
 2.46986103e-13 2.50958894e-13 2.54901606e-13 2.58807163e-13
 2.62668498e-13 2.66488223e-13 2.70249386e-13 2.73945012e-13
 2.77568216e-13 2.81112218e-13 2.84579045e-13 2.87944569e-13
 2.91219525e-13 2.94388999e-13 2.97454566e-13 3.00394862e-13
 3.03219174e-13 3.05914472e-13 3.08475597e-13 3.10897650e-13
 3.13181593e-13 3.15316748e-13 3.17294241e-13 3.19124743e-13
 3.20790390e-13 3.22292878e-13 3.23632593e-13 3.24803077e-13
 3.25802219e-13 3.26628263e-13 3.27281225e-13 3.27757753e-13
 3.28056623e-13 3.28179014e-13 3.28123620e-13 3.27891108e-13
 3.27481065e-13 3.26894961e-13 3.26134258e-13 3.25200767e-13
 3.24093656e-13 3.22820947e-13 3.21379083e-13 3.19774187e-13
 3.18005106e-13 3.16084420e-13 3.14006583e-13 3.11780544e-13
 3.09410907e-13 3.06902522e-13 3.04260475e-13 3.01483004e-13
 2.98582079e-13 2.95563438e-13 2.92432986e-13 2.89188609e-13
 2.85844204e-13 2.82414778e-13 2.78880877e-13 2.75274979e-13
 2.71595065e-13 2.67838427e-13 2.64020856e-13 2.60149116e-13
 2.56229963e-13 2.52260283e-13 2.48256466e-13 2.44225194e-13
 2.40173076e-13 2.36106630e-13 2.32032264e-13 2.27946204e-13
 2.23864697e-13 2.19793783e-13 2.15729374e-13 2.11697148e-13
 2.07682773e-13 2.03701546e-13 1.99758588e-13 1.95858795e-13
 1.91997426e-13 1.88188570e-13 1.84436426e-13 1.80744934e-13
 1.77117773e-13 1.73549716e-13 1.70061354e-13 1.66638470e-13
 1.63284224e-13 1.60017315e-13 1.56823830e-13 1.53721126e-13
 1.50695539e-13 1.47748932e-13 1.44896611e-13 1.42125366e-13
 1.39449124e-13 1.36855015e-13 1.34343625e-13 1.31926838e-13
 1.29592351e-13 1.27345384e-13 1.25184950e-13 1.23109854e-13
 1.21113975e-13 1.19205399e-13 1.17373103e-13 1.15619896e-13
 1.13943700e-13 1.12338516e-13 1.10806137e-13 1.09344097e-13
 1.07949828e-13 1.06620675e-13 1.05350925e-13 1.04143908e-13
 1.02990948e-13 1.01892147e-13 1.00842140e-13 9.98430614e-14
 9.88871829e-14 9.79740696e-14 9.71008557e-14 9.62627537e-14
 9.54610155e-14 9.46890796e-14 9.39462818e-14 9.32283947e-14
 9.25364099e-14 9.18646693e-14 9.12141755e-14 9.05782202e-14
 8.99594607e-14 8.93545450e-14 8.87604043e-14 8.81769812e-14
 8.76029156e-14 8.70370114e-14 8.64769132e-14 8.59231131e-14
 8.53749140e-14 8.48317887e-14 8.42933789e-14 8.37582268e-14
 8.32275914e-14 8.27016045e-14 8.21805531e-14 8.16648728e-14
 8.11539375e-14 8.06496937e-14 8.01529814e-14 7.96647550e-14
 7.91849497e-14 7.87169852e-14 7.82598768e-14 7.78160472e-14
 7.73858513e-14 7.69727079e-14 7.65760773e-14 7.61983764e-14
 7.58410129e-14 7.55046004e-14 7.51920564e-14 7.49031818e-14
 7.46399384e-14 7.44034254e-14 7.41941705e-14 7.40136238e-14
 7.38628207e-14 7.37416056e-14 7.36505719e-14 7.35903406e-14
 7.35606249e-14 7.35613886e-14 7.35921997e-14 7.36525757e-14
 7.37413444e-14 7.38577930e-14 7.40003783e-14 7.41674940e-14
 7.43577669e-14 7.45682326e-14 7.47975647e-14 7.50427621e-14
 7.53016996e-14 7.55702309e-14 7.58464750e-14 7.61265117e-14
 7.64068885e-14 7.66840250e-14 7.69548517e-14 7.72149223e-14
 7.74603801e-14 7.76873336e-14 7.78918826e-14 7.80705247e-14
 7.82188936e-14 7.83331976e-14 7.84097450e-14 7.84450013e-14
 7.84353083e-14 7.83774097e-14 7.82682535e-14 7.81050153e-14
 7.78845441e-14 7.76048306e-14 7.72638414e-14 7.68598479e-14
 7.63902856e-14 7.58562311e-14 7.52544782e-14 7.45857817e-14
 7.38483239e-14 7.30457905e-14 7.21751466e-14 7.12391636e-14
 7.02391841e-14 6.91743741e-14 6.80516008e-14 6.68680178e-14
 6.56287278e-14 6.43335803e-14 6.29916077e-14 6.16000224e-14
 6.01654030e-14 5.86914903e-14 5.71786929e-14 5.56379271e-14
 5.40662915e-14 5.24714819e-14 5.08577531e-14 4.92256529e-14
 4.75831260e-14 4.59344238e-14 4.42837356e-14 4.26351646e-14
 4.09889826e-14 3.93528323e-14 3.77304555e-14 3.61254270e-14
 3.45375720e-14 3.29772760e-14 3.14404639e-14 2.99334888e-14
 2.84556122e-14 2.70158362e-14 2.56097444e-14 2.42424962e-14
 2.29157126e-14 2.16279234e-14 2.03833243e-14 1.91828371e-14
 1.80271580e-14 1.69167656e-14 1.58495827e-14 1.48282327e-14]
Integrated fluxes
Total integrated flux of complex: 1.8626339698034814e-13
Section 3: 11.2 micron feature
Integrated flux of 11.2 micron feature:
2.461092400406756e-14
