iras17311_SWS_CWsubFitting and integrated flux data

Section 1: Aliphatic features
Gaussian fitting parameters for 6.9 and 7.2 micron features
[5.00e-14 7.00e+00 2.00e-01 1.00e-14 7.25e+00 2.00e-01]
Errors on aliphatic fitting parameters
[0. 0. 0. 0. 0. 0.]
Fit model - aliphatic features
[6.60048 6.60267 6.60711 6.60834 6.61369 6.61589 6.62151 6.62252 6.6269
 6.6291  6.63349 6.63568 6.64007 6.64231 6.6467  6.64985 6.65328 6.65547
 6.65986 6.66211 6.66649 6.66868 6.67307 6.67526 6.67964 6.68184 6.68313
 6.68943 6.69285 6.69505 6.69943 6.70264 6.70607 6.71045 6.71257 6.71483
 6.71921 6.72235 6.7268  6.73023 6.73337 6.7368  6.73899 6.74344 6.74563
 6.75001 6.75315 6.75534 6.76008 6.76322 6.76636 6.77074 6.77416 6.77635
 6.78177 6.78291 6.78738 6.78956 6.79394 6.79708 6.80059 6.80392 6.80715
 6.81057 6.81371 6.81808 6.82026 6.82473 6.82787 6.83129 6.83471 6.83785
 6.84232 6.8445  6.84887 6.85229 6.85419 6.85884 6.86332 6.8655  6.86958
 6.873   6.87519 6.87955 6.88173 6.88621 6.88934 6.89276 6.89618 6.89943
 6.90379 6.90692 6.91034 6.91375 6.91688 6.92125 6.92355 6.92791 6.93133
 6.93351 6.93771 6.94112 6.94356 6.94356 6.94356 6.94356 6.94672 6.94792
 6.94877 6.95203 6.95228 6.95515 6.95621 6.9587  6.95882 6.96211 6.96275
 6.96524 6.96616 6.96959 6.97009 6.97272 6.9735  6.97613 6.97624 6.97968
 6.97974 6.98281 6.98316 6.98716 6.98751 6.99029 6.99092 6.9937  6.99404
 6.99711 6.99733 7.00023 7.00151 7.00473 7.00509 7.00785 7.00833 7.01126
 7.01162 7.01396 7.01468 7.01794 7.01832 7.02173 7.0223  7.02542 7.02608
 7.02883 7.02919 7.03006 7.03137 7.03536 7.03807 7.03971 7.04024 7.04204
 7.04348 7.04639 7.04771 7.04988 7.05074 7.05292 7.05329 7.05688 7.05743
 7.06105 7.06272 7.06379 7.06434 7.06503 7.06597 7.06745 7.0718  7.07521
 7.0788  7.08191 7.08626 7.08843 7.09278 7.09618 7.09929 7.10383 7.10817
 7.10911 7.11488 7.11809 7.1245  7.12668 7.12791 7.13151 7.13442 7.13896
 7.14207 7.14547 7.14981 7.15415 7.15776 7.16087 7.16593 7.16738 7.17078
 7.17512 7.17843 7.18153 7.18587 7.18927 7.19051 7.19599 7.20033 7.2056
 7.20683 7.21023 7.21457 7.21789 7.22099 7.22532 7.22872 7.23212 7.23738
 7.23978 7.24288 7.24721 7.2499  7.254   7.2571  7.26166 7.26383 7.26816
 7.27248 7.27612 7.28021 7.28448 7.28664 7.29003 7.29367 7.29776 7.30109
 7.30419 7.30851 7.31284 7.31555 7.31987 7.32394 7.32631 7.33038 7.3347
 7.33742 7.34174 7.34483 7.34576 7.3525  7.35682 7.36238 7.36454 7.36793
 7.37009 7.37436 7.37868 7.38115 7.38115 7.38948 7.39314 7.40054 7.4027
 7.40486 7.40759 7.41164 7.41622 7.41931 7.42362 7.42671 7.43102 7.43376
 7.43808 7.4421  7.44452 7.44855 7.45286 7.45561 7.45992 7.46423 7.46731
 7.47068 7.47499 7.4793  7.48176 7.48607 7.49038 7.49345 7.49682 7.50113
 7.50544 7.5079  7.5125  7.51681 7.52081 7.52296 7.52727 7.53157 7.5331
 7.53864 7.54294 7.54386 7.5494  7.5537  7.56015 7.56015 7.56476 7.56906
 7.5746  7.57552 7.5789  7.5832  7.58874 7.59179 7.59549 7.60071 7.60286
 7.60625 7.61022 7.61484 7.6173  7.6216  7.62681 7.63052 7.63325 7.63665
 7.64094 7.64524 7.64894]
[6.85056194e-15 7.00236232e-15 7.31786178e-15 7.40711333e-15
 7.80476653e-15 7.97278305e-15 8.41402992e-15 8.49517743e-15
 8.85366002e-15 9.03777447e-15 9.41333072e-15 9.60476991e-15
 9.99676869e-15 1.02010442e-14 1.06097708e-14 1.09099125e-14
 1.12432753e-14 1.14596959e-14 1.19019233e-14 1.21329229e-14
 1.25910461e-14 1.28242875e-14 1.33002091e-14 1.35417951e-14
 1.40332557e-14 1.42842610e-14 1.44327275e-14 1.51713734e-14
 1.55817151e-14 1.58491252e-14 1.63894728e-14 1.67921374e-14
 1.72285393e-14 1.77948962e-14 1.80726297e-14 1.83712583e-14
 1.89574064e-14 1.93835026e-14 1.99955834e-14 2.04737809e-14
 2.09163113e-14 2.14047779e-14 2.17193534e-14 2.23648348e-14
 2.26854971e-14 2.33325231e-14 2.38008758e-14 2.41296657e-14
 2.48470319e-14 2.53263591e-14 2.58087695e-14 2.64865137e-14
 2.70193447e-14 2.73620971e-14 2.82151275e-14 2.83953421e-14
 2.91043466e-14 2.94513745e-14 3.01507400e-14 3.06535993e-14
 3.12168859e-14 3.17521628e-14 3.22719248e-14 3.28225844e-14
 3.33282035e-14 3.40314998e-14 3.43819998e-14 3.50995464e-14
 3.56023731e-14 3.61485633e-14 3.66929043e-14 3.71907743e-14
 3.78958704e-14 3.82379913e-14 3.89199116e-14 3.94496011e-14
 3.97422250e-14 4.04529974e-14 4.11299271e-14 4.14563097e-14
 4.20614692e-14 4.25626845e-14 4.28805765e-14 4.35059528e-14
 4.38147254e-14 4.44406304e-14 4.48707196e-14 4.53335538e-14
 4.57886656e-14 4.62137166e-14 4.67720893e-14 4.71642522e-14
 4.75841488e-14 4.79935964e-14 4.83610783e-14 4.88603703e-14
 4.91165391e-14 4.95892712e-14 4.99480013e-14 5.01709957e-14
 5.05879098e-14 5.09138512e-14 5.11400367e-14 5.11400367e-14
 5.11400367e-14 5.11400367e-14 5.14240942e-14 5.15293102e-14
 5.16029465e-14 5.18784482e-14 5.18991196e-14 5.21317287e-14
 5.22154407e-14 5.24073753e-14 5.24164575e-14 5.26594050e-14
 5.27053009e-14 5.28796029e-14 5.29422799e-14 5.31676949e-14
 5.31994604e-14 5.33619338e-14 5.34086235e-14 5.35609770e-14
 5.35671781e-14 5.37541352e-14 5.37572759e-14 5.39124462e-14
 5.39294462e-14 5.41136447e-14 5.41288767e-14 5.42447810e-14
 5.42697899e-14 5.43745814e-14 5.43867738e-14 5.44906906e-14
 5.44977100e-14 5.45848836e-14 5.46201894e-14 5.47004013e-14
 5.47086030e-14 5.47663579e-14 5.47754763e-14 5.48251837e-14
 5.48305853e-14 5.48619300e-14 5.48702615e-14 5.49002541e-14
 5.49029264e-14 5.49192162e-14 5.49205902e-14 5.49212765e-14
 5.49199423e-14 5.49088331e-14 5.49067170e-14 5.49009716e-14
 5.48906366e-14 5.48467231e-14 5.48062614e-14 5.47776153e-14
 5.47676891e-14 5.47315446e-14 5.46999298e-14 5.46287492e-14
 5.45932581e-14 5.45305902e-14 5.45042721e-14 5.44338069e-14
 5.44213147e-14 5.42921287e-14 5.42710649e-14 5.41240601e-14
 5.40513776e-14 5.40032055e-14 5.39779588e-14 5.39458209e-14
 5.39012087e-14 5.38290353e-14 5.36033353e-14 5.34124237e-14
 5.31983679e-14 5.30022625e-14 5.27116428e-14 5.25596651e-14
 5.22412434e-14 5.19798098e-14 5.17312355e-14 5.13525412e-14
 5.09734280e-14 5.08891628e-14 5.03555652e-14 5.00468381e-14
 4.94059707e-14 4.91808567e-14 4.90522852e-14 4.86696589e-14
 4.83536510e-14 4.78490691e-14 4.74955746e-14 4.71021049e-14
 4.65896380e-14 4.60662537e-14 4.56230054e-14 4.52356717e-14
 4.45952220e-14 4.44094607e-14 4.39701755e-14 4.34022559e-14
 4.29640340e-14 4.25498759e-14 4.19643859e-14 4.15014190e-14
 4.13316945e-14 4.05764309e-14 3.99728123e-14 3.92342017e-14
 3.90610173e-14 3.85809008e-14 3.79653932e-14 3.74928350e-14
 3.70504778e-14 3.64311613e-14 3.59439708e-14 3.54562518e-14
 3.47012135e-14 3.43566974e-14 3.39118568e-14 3.32911027e-14
 3.29059757e-14 3.23200061e-14 3.18779656e-14 3.12296556e-14
 3.09220560e-14 3.03102816e-14 2.97028887e-14 2.91936645e-14
 2.86245473e-14 2.80341269e-14 2.77370113e-14 2.72729220e-14
 2.67777651e-14 2.62254991e-14 2.57792153e-14 2.53665791e-14
 2.47962663e-14 2.42303571e-14 2.38791895e-14 2.33243463e-14
 2.28073361e-14 2.25088992e-14 2.20009999e-14 2.14684083e-14
 2.11365794e-14 2.06152321e-14 2.02466625e-14 2.01364505e-14
 1.93477601e-14 1.88516685e-14 1.82241973e-14 1.79838122e-14
 1.76103895e-14 1.73749220e-14 1.69151202e-14 1.64576609e-14
 1.61996151e-14 1.61996151e-14 1.53483049e-14 1.49835378e-14
 1.42633961e-14 1.40575790e-14 1.38537446e-14 1.35989563e-14
 1.32268020e-14 1.28143229e-14 1.25410465e-14 1.21665990e-14
 1.19029495e-14 1.15418814e-14 1.13163664e-14 1.09671362e-14
 1.06490745e-14 1.04608012e-14 1.01525713e-14 9.83020600e-15
 9.62842401e-15 9.31824610e-15 9.01541667e-15 8.80347076e-15
 8.57579196e-15 8.29097841e-15 8.01324085e-15 7.85785734e-15
 7.59106261e-15 7.33112112e-15 7.15009486e-15 6.95528918e-15
 6.71204026e-15 6.47531804e-15 6.34309344e-15 6.10140051e-15
 5.88142404e-15 5.68278749e-15 5.57818590e-15 5.37299377e-15
 5.17417216e-15 5.10482914e-15 4.85979628e-15 4.67604083e-15
 4.63744442e-15 4.41029765e-15 4.24012308e-15 3.99465705e-15
 3.99465705e-15 3.82624480e-15 3.67430893e-15 3.48571427e-15
 3.45516125e-15 3.34475370e-15 3.20841639e-15 3.03940968e-15
 2.94948518e-15 2.84330479e-15 2.69880651e-15 2.64105775e-15
 2.55205384e-15 2.45095459e-15 2.33745742e-15 2.27880725e-15
 2.17919688e-15 2.06334224e-15 1.98398472e-15 1.92721768e-15
 1.85840832e-15 1.77451066e-15 1.69360509e-15 1.62647361e-15]

Integrated fluxes of aliphatic features
6.9 micron feature nan
7.2 micron feature nan
S/N of 6.9: nan
S/N of 7.2: nan

Section 2: 7.7 micron complex
Gaussian fitting parameters for 7.7 micron complex
[3.78411121e-14 7.61968947e+00 8.01629115e-02 6.81154936e-14
 7.88532739e+00 1.20062323e-01 3.24086116e-14 8.20539011e+00
 8.69223497e-02 5.23962410e-14 8.63056429e+00 1.19681703e-01]
Errors on fitting parameters
[3.74617536e-15 1.26736957e-02 1.10774553e-02 1.93753548e-15
 8.34251210e-03 1.32293737e-02 2.39569854e-15 1.11978507e-02
 1.02032460e-02 1.77219452e-15 5.00778472e-03 4.95249223e-03]
Fit model - 7.7 micron complex
[7.10383 7.10817 7.10911 7.11488 7.11809 7.1245  7.12668 7.12791 7.13151
 7.13442 7.13896 7.14207 7.14547 7.14981 7.15415 7.15776 7.16087 7.16593
 7.16738 7.17078 7.17512 7.17843 7.18153 7.18587 7.18927 7.19051 7.19599
 7.20033 7.2056  7.20683 7.21023 7.21457 7.21789 7.22099 7.22532 7.22872
 7.23212 7.23738 7.23978 7.24288 7.24721 7.2499  7.254   7.2571  7.26166
 7.26383 7.26816 7.27248 7.27612 7.28021 7.28448 7.28664 7.29003 7.29367
 7.29776 7.30109 7.30419 7.30851 7.31284 7.31555 7.31987 7.32394 7.32631
 7.33038 7.3347  7.33742 7.34174 7.34483 7.34576 7.3525  7.35682 7.36238
 7.36454 7.36793 7.37009 7.37436 7.37868 7.38115 7.38115 7.38948 7.39314
 7.40054 7.4027  7.40486 7.40759 7.41164 7.41622 7.41931 7.42362 7.42671
 7.43102 7.43376 7.43808 7.4421  7.44452 7.44855 7.45286 7.45561 7.45992
 7.46423 7.46731 7.47068 7.47499 7.4793  7.48176 7.48607 7.49038 7.49345
 7.49682 7.50113 7.50544 7.5079  7.5125  7.51681 7.52081 7.52296 7.52727
 7.53157 7.5331  7.53864 7.54294 7.54386 7.5494  7.5537  7.56015 7.56015
 7.56476 7.56906 7.5746  7.57552 7.5789  7.5832  7.58874 7.59179 7.59549
 7.60071 7.60286 7.60625 7.61022 7.61484 7.6173  7.6216  7.62681 7.63052
 7.63325 7.63665 7.64094 7.64524 7.64894 7.65232 7.65661 7.66182 7.66305
 7.66737 7.67166 7.6781  7.68024 7.6827  7.68699 7.69127 7.69591 7.69774
 7.70111 7.70666 7.71095 7.71397 7.71861 7.72198 7.72626 7.72968 7.73305
 7.73702 7.73825 7.74503 7.74895 7.75629 7.75788 7.76002 7.76343 7.76772
 7.772   7.77537 7.77873 7.78521 7.7882  7.79194 7.79713 7.79964 7.80355
 7.8066  7.81247 7.81553 7.81889 7.82316 7.82691 7.83118 7.83599 7.83766
 7.84155 7.84583 7.85048 7.85384 7.85689 7.86239 7.86614 7.87254 7.87468
 7.87811 7.88077 7.88504 7.8897  7.89306 7.89642 7.90159 7.90586 7.90962
 7.91479 7.9161  7.92159 7.92423 7.9289  7.93316 7.93652 7.94119 7.94504
 7.94931 7.95398 7.95733 7.96078 7.96504 7.97053 7.97234 7.97447 7.98127
 7.98553 7.99192 7.99405 7.9965  8.00075 8.00501 8.00969 8.01272 8.01698
 8.02123 8.02469 8.02894 8.0332  8.03697 8.0408  8.04505 8.04973 8.05308
 8.05733 8.06202 8.06627 8.06808 8.07233 8.07658 8.08126 8.08461 8.08886
 8.0922  8.09779 8.1016  8.10584 8.11053 8.11388 8.11735 8.12159 8.12584
 8.13008 8.1322  8.13857 8.14204 8.1484  8.15053 8.15432 8.15811 8.16235
 8.16704 8.17128 8.17462 8.17976 8.18446 8.1878  8.19127 8.19551 8.19929
 8.20399 8.207   8.21034 8.21594 8.22017 8.22351 8.22864 8.23244 8.23532
 8.24044 8.24515 8.24848 8.25361 8.25784 8.26165 8.26677 8.26936 8.27359
 8.27782 8.28205 8.28628 8.28839 8.29399 8.30018 8.3053  8.30578 8.31049
 8.31471 8.31894 8.32316 8.32649 8.3321  8.33721 8.34054 8.34476 8.34809
 8.3528  8.35653 8.36003 8.36425 8.36725 8.37268 8.3774  8.38162 8.38583
 8.39005 8.39305 8.4002  8.4032  8.40741 8.41162 8.41706 8.42005 8.42355
 8.42738 8.43159 8.43581 8.43913 8.44334 8.44895 8.45316 8.45737 8.46247
 8.46579 8.46999 8.4742  8.47892 8.48313 8.48785 8.49206 8.49626 8.50047
 8.50467 8.50887 8.51308 8.5178  8.52112 8.5262  8.5304  8.5346  8.53933
 8.54195 8.54616 8.55124 8.55544 8.55964 8.56384 8.56925 8.57344 8.57729
 8.5808  8.5829  8.58919 8.59339 8.59968 8.59968 8.60685 8.61104 8.61752
 8.61962 8.62381 8.628   8.63219 8.63638 8.64145 8.64564 8.64949 8.65577
 8.65841 8.66259 8.66557 8.67185 8.67515 8.68022 8.68407 8.68979 8.69453
 8.69717 8.70135 8.70641 8.7106  8.7139  8.72017 8.72402 8.72908 8.73326
 8.73678 8.74096 8.74579 8.74965 8.75382 8.75944 8.76361 8.76779 8.77284
 8.77526 8.78031 8.78504 8.78922 8.7913  8.79812 8.80294 8.81006 8.81151
 8.8148  8.82075 8.82579 8.82788 8.82996 8.8395  8.84246 8.84807 8.85136
 8.85522 8.85969 8.86443 8.86859 8.87363 8.87779 8.88195 8.88877 8.89055
 8.89471 8.89975]
[8.14802360e-23 1.08815917e-22 1.15867929e-22 1.70515038e-22
 2.11531680e-22 3.25634974e-22 3.77175556e-22 4.09790944e-22
 5.22424697e-22 6.35757716e-22 8.63566227e-22 1.06499376e-21
 1.33904140e-21 1.79280590e-21 2.39869918e-21 3.05401767e-21
 3.75839683e-21 5.26154214e-21 5.79227122e-21 7.25200628e-21
 9.64938188e-21 1.19854215e-20 1.46709602e-20 1.94420440e-20
 2.42096571e-20 2.62180629e-20 3.72162045e-20 4.90024763e-20
 6.82446809e-20 7.36956505e-20 9.10514807e-20 1.19026194e-19
 1.45871157e-19 1.76156623e-19 2.28791981e-19 2.80448443e-19
 3.43243180e-19 4.67766029e-19 5.38049813e-19 6.43932171e-19
 8.25746289e-19 9.62439056e-19 1.21316546e-18 1.44296732e-18
 1.85776670e-18 2.09293651e-18 2.64950325e-18 3.34316637e-18
 4.05822041e-18 5.03399025e-18 6.28730841e-18 7.02845847e-18
 8.36002467e-18 1.00527485e-17 1.23377825e-17 1.45498123e-17
 1.69387582e-17 2.08854028e-17 2.56914723e-17 2.92050271e-17
 3.57438242e-17 4.31263779e-17 4.80532373e-17 5.77478538e-17
 6.99928997e-17 7.88871036e-17 9.51723573e-17 1.08655172e-16
 1.13043117e-16 1.50015483e-16 1.79190935e-16 2.24296399e-16
 2.44426004e-16 2.79319023e-16 3.03827456e-16 3.58030032e-16
 4.21511546e-16 4.62149127e-16 4.62149127e-16 6.26018272e-16
 7.12909207e-16 9.21361450e-16 9.91416355e-16 1.06603271e-15
 1.16722749e-15 1.33249885e-15 1.54306618e-15 1.70052035e-15
 1.94256159e-15 2.13326847e-15 2.42498816e-15 2.62695456e-15
 2.97312079e-15 3.32752595e-15 3.55667954e-15 3.96592487e-15
 4.44358769e-15 4.77090285e-15 5.32065872e-15 5.91691922e-15
 6.37243401e-15 6.89964347e-15 7.61868245e-15 8.38886097e-15
 8.85163296e-15 9.70325943e-15 1.06068464e-14 1.12819340e-14
 1.20527370e-14 1.30829870e-14 1.41615487e-14 1.47979878e-14
 1.60266738e-14 1.72206848e-14 1.83626073e-14 1.89886509e-14
 2.02667026e-14 2.15683026e-14 2.20368129e-14 2.37515561e-14
 2.50961440e-14 2.53846865e-14 2.71232978e-14 2.84675148e-14
 3.04586522e-14 3.04586522e-14 3.18515855e-14 3.31194265e-14
 3.46967262e-14 3.49516370e-14 3.58690401e-14 3.69890484e-14
 3.83455670e-14 3.90471069e-14 3.98519908e-14 4.08968372e-14
 4.12950946e-14 4.18838795e-14 4.25113342e-14 4.31560028e-14
 4.34615475e-14 4.39329154e-14 4.43986683e-14 4.46618356e-14
 4.48203368e-14 4.49776297e-14 4.51157128e-14 4.51911178e-14
 4.52097958e-14 4.51930434e-14 4.51305541e-14 4.50022447e-14
 4.49649010e-14 4.48166042e-14 4.46490045e-14 4.43769667e-14
 4.42851445e-14 4.41808144e-14 4.40062471e-14 4.38479298e-14
 4.37026067e-14 4.36546858e-14 4.35827289e-14 4.35170652e-14
 4.35178893e-14 4.35483963e-14 4.36472305e-14 4.37607173e-14
 4.39578877e-14 4.41594416e-14 4.43970999e-14 4.47273612e-14
 4.48407576e-14 4.55593341e-14 4.60459015e-14 4.70912699e-14
 4.73397839e-14 4.76860770e-14 4.82648516e-14 4.90373100e-14
 4.98530790e-14 5.05239690e-14 5.12151965e-14 5.26013815e-14
 5.32601158e-14 5.40968410e-14 5.52741895e-14 5.58473933e-14
 5.67413295e-14 5.74367831e-14 5.87615835e-14 5.94406868e-14
 6.01737920e-14 6.10819666e-14 6.18535749e-14 6.26975042e-14
 6.35974345e-14 6.38960234e-14 6.45614665e-14 6.52415723e-14
 6.59136760e-14 6.63531746e-14 6.67168868e-14 6.72840174e-14
 6.76025330e-14 6.80130132e-14 6.81118166e-14 6.82291549e-14
 6.82849881e-14 6.83097140e-14 6.82447627e-14 6.81382021e-14
 6.79816538e-14 6.76437117e-14 6.72768650e-14 6.68892067e-14
 6.62595612e-14 6.60826283e-14 6.52668947e-14 6.48330959e-14
 6.40024052e-14 6.31771314e-14 6.24831373e-14 6.14592238e-14
 6.05665667e-14 5.95292978e-14 5.83431536e-14 5.74623357e-14
 5.65318920e-14 5.53542448e-14 5.37975354e-14 5.32763914e-14
 5.26589929e-14 5.06657229e-14 4.94070148e-14 4.75184803e-14
 4.68915624e-14 4.61734983e-14 4.49384892e-14 4.37186125e-14
 4.24054510e-14 4.15733767e-14 4.04315335e-14 3.93292258e-14
 3.84621134e-14 3.74378539e-14 3.64601304e-14 3.56387465e-14
 3.48490427e-14 3.40282656e-14 3.31951794e-14 3.26460633e-14
 3.20077955e-14 3.13809108e-14 3.08841947e-14 3.06934184e-14
 3.02943543e-14 2.99637082e-14 2.96779986e-14 2.95231339e-14
 2.93848869e-14 2.93206867e-14 2.92971046e-14 2.93381912e-14
 2.94348486e-14 2.95996506e-14 2.97514511e-14 2.99358380e-14
 3.01946700e-14 3.04861117e-14 3.08032114e-14 3.09698227e-14
 3.14938118e-14 3.17885746e-14 3.23322657e-14 3.25124233e-14
 3.28268973e-14 3.31298916e-14 3.34500529e-14 3.37744037e-14
 3.40347601e-14 3.42143780e-14 3.44411600e-14 3.45900795e-14
 3.46589571e-14 3.46959737e-14 3.46911150e-14 3.46384783e-14
 3.45074289e-14 3.43845179e-14 3.42120800e-14 3.38375438e-14
 3.34840750e-14 3.31627181e-14 3.25983212e-14 3.21267874e-14
 3.17403393e-14 3.09945525e-14 3.02464318e-14 2.96845347e-14
 2.87706726e-14 2.79780577e-14 2.72380832e-14 2.62113054e-14
 2.56803240e-14 2.48003119e-14 2.39089475e-14 2.30114530e-14
 2.21130176e-14 2.16661061e-14 2.04897038e-14 1.92166251e-14
 1.81952600e-14 1.81012849e-14 1.71976460e-14 1.64196180e-14
 1.56735937e-14 1.49665267e-14 1.44368672e-14 1.36051321e-14
 1.29179685e-14 1.25082379e-14 1.20338409e-14 1.16958583e-14
 1.12739837e-14 1.09874994e-14 1.07575440e-14 1.05308610e-14
 1.04035787e-14 1.02451109e-14 1.01827214e-14 1.01861454e-14
 1.02449525e-14 1.03589796e-14 1.04732666e-14 1.08553571e-14
 1.10609862e-14 1.13938401e-14 1.17775071e-14 1.23467535e-14
 1.26940869e-14 1.31309710e-14 1.36456630e-14 1.42543835e-14
 1.49083176e-14 1.54526083e-14 1.61792815e-14 1.72083548e-14
 1.80240009e-14 1.88748585e-14 1.99500582e-14 2.06746257e-14
 2.16172550e-14 2.25893006e-14 2.37086953e-14 2.47309746e-14
 2.59007072e-14 2.69623335e-14 2.80359108e-14 2.91238524e-14
 3.02182136e-14 3.13187138e-14 3.24250542e-14 3.36655156e-14
 3.45358549e-14 3.58601557e-14 3.69447781e-14 3.80166858e-14
 3.92046221e-14 3.98522497e-14 4.08749892e-14 4.20756234e-14
 4.30368865e-14 4.39663906e-14 4.48610693e-14 4.59573601e-14
 4.67593900e-14 4.74575444e-14 4.80598889e-14 4.84040538e-14
 4.93588982e-14 4.99302136e-14 5.06814930e-14 5.06814930e-14
 5.13784554e-14 5.17042518e-14 5.20863781e-14 5.21780047e-14
 5.23131690e-14 5.23844545e-14 5.23915961e-14 5.23345649e-14
 5.21800655e-14 5.19822825e-14 5.17452722e-14 5.12470629e-14
 5.09971234e-14 5.05535464e-14 5.02022662e-14 4.93696387e-14
 4.88836865e-14 4.80751242e-14 4.74132015e-14 4.63578986e-14
 4.54225381e-14 4.48792526e-14 4.39885136e-14 4.28638576e-14
 4.18976446e-14 4.11165312e-14 3.95893020e-14 3.86272055e-14
 3.73393928e-14 3.62590763e-14 3.53401644e-14 3.42406635e-14
 3.29626072e-14 3.19381846e-14 3.08311763e-14 2.93432842e-14
 2.82455995e-14 2.71533888e-14 2.58479431e-14 2.52288713e-14
 2.39527839e-14 2.27793471e-14 2.17619861e-14 2.12631319e-14
 1.96645866e-14 1.85714430e-14 1.70162934e-14 1.67086649e-14
 1.60224097e-14 1.48236210e-14 1.38518070e-14 1.34607422e-14
 1.30785500e-14 1.14157421e-14 1.09299946e-14 1.00484811e-14
 9.55519479e-15 8.99855596e-15 8.38344004e-15 7.76519688e-15
 7.25090783e-15 6.66244990e-15 6.20459535e-15 5.77122843e-15
 5.11188466e-15 4.94991530e-15 4.58715206e-15 4.17631494e-15]
Integrated fluxes
Total integrated flux of complex: 3.516446236041017e-14
Section 3: 11.2 micron feature
Integrated flux of 11.2 micron feature:
2.319602782252325e-14
