iras13416_SWS_CWsubFitting and integrated flux data

Section 1: Aliphatic features
Gaussian fitting parameters for 6.9 and 7.2 micron features
[5.00e-14 7.00e+00 2.00e-01 1.00e-14 7.25e+00 2.00e-01]
Errors on aliphatic fitting parameters
[0. 0. 0. 0. 0. 0.]
Fit model - aliphatic features
[6.60016 6.60346 6.60676 6.61006 6.61337 6.61668 6.61999 6.6233  6.62661
 6.62992 6.63324 6.63656 6.63988 6.6432  6.64652 6.64984 6.65317 6.6565
 6.65983 6.66316 6.66649 6.66982 6.67316 6.6765  6.67984 6.68318 6.68652
 6.68986 6.69321 6.69656 6.6999  6.70326 6.70661 6.70996 6.71332 6.71668
 6.72003 6.7234  6.72676 6.73012 6.73349 6.73686 6.74022 6.7436  6.74697
 6.75034 6.75372 6.7571  6.76048 6.76386 6.76724 6.77062 6.77401 6.7774
 6.78079 6.78418 6.78757 6.79097 6.79436 6.79776 6.80116 6.80456 6.80797
 6.81137 6.81478 6.81818 6.8216  6.82501 6.82842 6.83183 6.83525 6.83867
 6.84209 6.84551 6.84894 6.85236 6.85579 6.85922 6.86265 6.86608 6.86951
 6.87295 6.87639 6.87983 6.88327 6.88671 6.89015 6.8936  6.89705 6.9005
 6.90395 6.9074  6.91085 6.91431 6.91777 6.92123 6.92469 6.92815 6.93162
 6.93508 6.93855 6.94202 6.94223 6.9455  6.94571 6.94897 6.94918 6.95244
 6.95266 6.95592 6.95613 6.9594  6.95961 6.96288 6.96309 6.96636 6.96657
 6.96985 6.97006 6.97333 6.97354 6.97682 6.97703 6.98031 6.98052 6.9838
 6.98401 6.98729 6.98751 6.99079 6.991   6.99428 6.9945  6.99778 6.99799
 7.00128 7.00149 7.00478 7.005   7.00829 7.0085  7.01179 7.012   7.0153
 7.01551 7.01881 7.01902 7.02232 7.02253 7.02583 7.02604 7.02934 7.02956
 7.03286 7.03307 7.03638 7.03659 7.0399  7.04011 7.04342 7.04363 7.04694
 7.04715 7.05046 7.05068 7.05399 7.0542  7.05752 7.05773 7.06105 7.06126
 7.06458 7.06479 7.06811 7.06833 7.07165 7.07186 7.0754  7.07894 7.08248
 7.08602 7.08956 7.09311 7.09666 7.1002  7.10376 7.10731 7.11086 7.11442
 7.11798 7.12154 7.1251  7.12866 7.13223 7.13579 7.13936 7.14293 7.14651
 7.15008 7.15366 7.15723 7.16081 7.16439 7.16798 7.17156 7.17515 7.17874
 7.18233 7.18592 7.18951 7.19311 7.19671 7.20031 7.20391 7.20751 7.21112
 7.21472 7.21833 7.22194 7.22555 7.22917 7.23278 7.2364  7.24002 7.24364
 7.24726 7.25089 7.25451 7.25814 7.26177 7.2654  7.26904 7.27267 7.27631
 7.27995 7.28359 7.28723 7.29088 7.29452 7.29817 7.30182 7.30547 7.30913
 7.31278 7.31644 7.3201  7.32376 7.32742 7.33109 7.33475 7.33842 7.34209
 7.34576 7.34944 7.35311 7.35679 7.36047 7.36415 7.36783 7.37152 7.3752
 7.37889 7.38258 7.38628 7.38997 7.39367 7.39736 7.40106 7.40476 7.40847
 7.41217 7.41588 7.41959 7.4233  7.42701 7.43073 7.43444 7.43816 7.44188
 7.4456  7.44933 7.45305 7.45678 7.46051 7.46424 7.46797 7.47171 7.47544
 7.47918 7.48292 7.48667 7.49041 7.49416 7.4979  7.50165 7.50541 7.50916
 7.51292 7.51667 7.52043 7.52419 7.52796 7.53172 7.53549 7.53926 7.54303
 7.5468  7.55057 7.55435 7.55813 7.56191 7.56569 7.56947 7.57326 7.57705
 7.58084 7.58463 7.58842 7.59222 7.59601 7.59981 7.60361 7.60742 7.61122
 7.61503 7.61884 7.62265 7.62646 7.63027 7.63409 7.63791 7.64173 7.64555
 7.64937]
[6.82859057e-15 7.05773779e-15 7.29261231e-15 7.53327675e-15
 7.78054708e-15 8.03376064e-15 8.29297224e-15 8.55823362e-15
 8.82959324e-15 9.10709618e-15 9.39165043e-15 9.68246508e-15
 9.97957437e-15 1.02830085e-14 1.05927933e-14 1.09089506e-14
 1.12324784e-14 1.15624467e-14 1.18988632e-14 1.22417305e-14
 1.25910461e-14 1.29468021e-14 1.33100827e-14 1.36798102e-14
 1.40559599e-14 1.44385012e-14 1.48273974e-14 1.52226059e-14
 1.56252891e-14 1.60342173e-14 1.64480800e-14 1.68705532e-14
 1.72978164e-14 1.77310357e-14 1.81714413e-14 1.86176519e-14
 1.90682103e-14 1.95270655e-14 1.99900394e-14 2.04583600e-14
 2.09333120e-14 2.14133687e-14 2.18969355e-14 2.23881963e-14
 2.28826494e-14 2.33815714e-14 2.38862851e-14 2.43951307e-14
 2.49079156e-14 2.54244400e-14 2.59444974e-14 2.64678740e-14
 2.69959117e-14 2.75268380e-14 2.80604173e-14 2.85964078e-14
 2.91345614e-14 2.96762197e-14 3.02179357e-14 3.07626379e-14
 3.13084570e-14 3.18551139e-14 3.24039346e-14 3.29514105e-14
 3.35004666e-14 3.40475840e-14 3.45972832e-14 3.51444304e-14
 3.56903222e-14 3.62346431e-14 3.67786626e-14 3.73204585e-14
 3.78597049e-14 3.83960738e-14 3.89307898e-14 3.94604035e-14
 3.99876785e-14 4.05107257e-14 4.10292101e-14 4.15427968e-14
 4.20511515e-14 4.25553982e-14 4.30537124e-14 4.35457611e-14
 4.40312134e-14 4.45097413e-14 4.49810195e-14 4.54460630e-14
 4.59031703e-14 4.63520248e-14 4.67923147e-14 4.72237330e-14
 4.76459784e-14 4.80599374e-14 4.84640806e-14 4.88581225e-14
 4.92417846e-14 4.96147955e-14 4.99779223e-14 5.03288156e-14
 5.06692550e-14 5.09979693e-14 5.10174812e-14 5.13156220e-14
 5.13344010e-14 5.16201648e-14 5.16381998e-14 5.19123150e-14
 5.19304150e-14 5.21926569e-14 5.22091645e-14 5.24601362e-14
 5.24758616e-14 5.27145689e-14 5.27295014e-14 5.29557818e-14
 5.29699112e-14 5.31842478e-14 5.31975623e-14 5.33985060e-14
 5.34109993e-14 5.35996471e-14 5.36113086e-14 5.37869062e-14
 5.37977285e-14 5.39601655e-14 5.39701419e-14 5.41193190e-14
 5.41288767e-14 5.42646674e-14 5.42729323e-14 5.43952982e-14
 5.44030526e-14 5.45118896e-14 5.45184247e-14 5.46139887e-14
 5.46196527e-14 5.47015497e-14 5.47065671e-14 5.47747269e-14
 5.47786399e-14 5.48330823e-14 5.48361193e-14 5.48769408e-14
 5.48790992e-14 5.49061184e-14 5.49073989e-14 5.49206314e-14
 5.49210354e-14 5.49205084e-14 5.49200379e-14 5.49057901e-14
 5.49043827e-14 5.48764255e-14 5.48742127e-14 5.48325010e-14
 5.48294220e-14 5.47740944e-14 5.47701540e-14 5.47012949e-14
 5.46964989e-14 5.46142036e-14 5.46085584e-14 5.45129329e-14
 5.45061355e-14 5.43972593e-14 5.43899352e-14 5.42675860e-14
 5.42594337e-14 5.41240601e-14 5.41150885e-14 5.39668390e-14
 5.39570579e-14 5.37960906e-14 5.37850053e-14 5.36114526e-14
 5.36000817e-14 5.34014290e-14 5.31897517e-14 5.29652585e-14
 5.27281672e-14 5.24787039e-14 5.22163472e-14 5.19420285e-14
 5.16568218e-14 5.13585203e-14 5.10498556e-14 5.07302780e-14
 5.03991207e-14 5.00575548e-14 4.97058717e-14 4.93443678e-14
 4.89733435e-14 4.85920228e-14 4.82028509e-14 4.78039547e-14
 4.73967318e-14 4.69803274e-14 4.65573897e-14 4.61258739e-14
 4.56885155e-14 4.52431909e-14 4.47914433e-14 4.43323134e-14
 4.38686872e-14 4.33983033e-14 4.29227773e-14 4.24424358e-14
 4.19576040e-14 4.14686047e-14 4.09743804e-14 4.04766078e-14
 3.99756041e-14 3.94716829e-14 3.89651542e-14 3.84549076e-14
 3.79440724e-14 3.74301097e-14 3.69147308e-14 3.63982257e-14
 3.58794451e-14 3.53615352e-14 3.48419021e-14 3.43222500e-14
 3.38028433e-14 3.32839401e-14 3.27643623e-14 3.22472185e-14
 3.17298923e-14 3.12140480e-14 3.06999134e-14 3.01863013e-14
 2.96762483e-14 2.91671526e-14 2.86606244e-14 2.81568586e-14
 2.76560431e-14 2.71569961e-14 2.66626264e-14 2.61703854e-14
 2.56817974e-14 2.51970166e-14 2.47148785e-14 2.42381586e-14
 2.37643792e-14 2.32949798e-14 2.28300818e-14 2.23697997e-14
 2.19130033e-14 2.14622838e-14 2.10152740e-14 2.05733018e-14
 2.01364505e-14 1.97036287e-14 1.92772603e-14 1.88550879e-14
 1.84383409e-14 1.80270743e-14 1.76213373e-14 1.72200945e-14
 1.68255595e-14 1.64356222e-14 1.60513916e-14 1.56718741e-14
 1.52991409e-14 1.49311871e-14 1.45700126e-14 1.42136663e-14
 1.38631376e-14 1.35175012e-14 1.31786151e-14 1.28446386e-14
 1.25164827e-14 1.21941315e-14 1.18775657e-14 1.15659327e-14
 1.12608824e-14 1.09607417e-14 1.06663091e-14 1.03775505e-14
 1.00936755e-14 9.81616721e-15 9.54349185e-15 9.27635899e-15
 9.01472254e-15 8.75853444e-15 8.50707960e-15 8.26165089e-15
 8.02087866e-15 7.78537269e-15 7.55446729e-15 7.32933559e-15
 7.10871381e-15 6.89371775e-15 6.68313551e-15 6.47694343e-15
 6.27617382e-15 6.07969035e-15 5.88847202e-15 5.70143192e-15
 5.51901839e-15 5.34069596e-15 5.16734152e-15 4.99796317e-15
 4.83295754e-15 4.67225399e-15 4.51578157e-15 4.36346917e-15
 4.21485772e-15 4.07028479e-15 3.92967844e-15 3.79296669e-15
 3.66007768e-15 3.53060289e-15 3.40482675e-15 3.28267726e-15
 3.16408269e-15 3.04897161e-15 2.93698262e-15 2.82863423e-15
 2.72328396e-15 2.62115160e-15 2.52191079e-15 2.42601287e-15
 2.33288379e-15 2.24271108e-15 2.15542647e-15 2.07096231e-15
 1.98925165e-15 1.91002428e-15 1.83343218e-15 1.75941002e-15
 1.68789325e-15 1.61881810e-15]

Integrated fluxes of aliphatic features
6.9 micron feature 2.448031396042206e-14
7.2 micron feature 4.895448332024235e-15
S/N of 6.9: 7.894766002756754
S/N of 7.2: 1.5787550405767288

Section 2: 7.7 micron complex
Gaussian fitting parameters for 7.7 micron complex
[2.65275791e-14 7.66748981e+00 9.34625325e-02 2.17695588e-13
 8.13753592e+00 2.45789964e-01 2.00000000e-19 8.10000000e+00
 2.00000000e-01 6.22289327e-14 8.67181062e+00 1.22778030e-01]
Errors on fitting parameters
[2.51208108e-15 7.55432671e-03 9.90916511e-03 1.40241311e-15
 2.45399300e-03 4.55977293e-03 0.00000000e+00 0.00000000e+00
 0.00000000e+00 2.17074834e-15 5.52886345e-03 5.35519656e-03]
Fit model - 7.7 micron complex
[7.1002  7.10376 7.10731 7.11086 7.11442 7.11798 7.12154 7.1251  7.12866
 7.13223 7.13579 7.13936 7.14293 7.14651 7.15008 7.15366 7.15723 7.16081
 7.16439 7.16798 7.17156 7.17515 7.17874 7.18233 7.18592 7.18951 7.19311
 7.19671 7.20031 7.20391 7.20751 7.21112 7.21472 7.21833 7.22194 7.22555
 7.22917 7.23278 7.2364  7.24002 7.24364 7.24726 7.25089 7.25451 7.25814
 7.26177 7.2654  7.26904 7.27267 7.27631 7.27995 7.28359 7.28723 7.29088
 7.29452 7.29817 7.30182 7.30547 7.30913 7.31278 7.31644 7.3201  7.32376
 7.32742 7.33109 7.33475 7.33842 7.34209 7.34576 7.34944 7.35311 7.35679
 7.36047 7.36415 7.36783 7.37152 7.3752  7.37889 7.38258 7.38628 7.38997
 7.39367 7.39736 7.40106 7.40476 7.40847 7.41217 7.41588 7.41959 7.4233
 7.42701 7.43073 7.43444 7.43816 7.44188 7.4456  7.44933 7.45305 7.45678
 7.46051 7.46424 7.46797 7.47171 7.47544 7.47918 7.48292 7.48667 7.49041
 7.49416 7.4979  7.50165 7.50541 7.50916 7.51292 7.51667 7.52043 7.52419
 7.52796 7.53172 7.53549 7.53926 7.54303 7.5468  7.55057 7.55435 7.55813
 7.56191 7.56569 7.56947 7.57326 7.57705 7.58084 7.58463 7.58842 7.59222
 7.59601 7.59981 7.60361 7.60742 7.61122 7.61503 7.61884 7.62265 7.62646
 7.63027 7.63409 7.63791 7.64173 7.64555 7.64937 7.6532  7.65703 7.66086
 7.66469 7.66852 7.67236 7.67619 7.68003 7.68387 7.68772 7.69156 7.69541
 7.69926 7.70311 7.70696 7.71081 7.71467 7.71853 7.72239 7.72625 7.73011
 7.73398 7.73785 7.74172 7.74559 7.74946 7.75334 7.75722 7.7611  7.76498
 7.76886 7.77275 7.77663 7.78052 7.78441 7.78831 7.7922  7.7961  7.8
 7.8039  7.8078  7.81171 7.81561 7.81952 7.82343 7.82735 7.83126 7.83518
 7.8391  7.84302 7.84694 7.85086 7.85479 7.85872 7.86265 7.86658 7.87052
 7.87445 7.87839 7.88233 7.88627 7.89022 7.89416 7.89811 7.90206 7.90601
 7.90997 7.91392 7.91788 7.92184 7.9258  7.92977 7.93373 7.9377  7.94167
 7.94564 7.94962 7.95359 7.95757 7.96155 7.96553 7.96951 7.9735  7.97749
 7.98148 7.98547 7.98946 7.99346 7.99746 8.00146 8.00546 8.00946 8.01347
 8.01748 8.02149 8.0255  8.02951 8.03353 8.03754 8.04156 8.04559 8.04961
 8.05364 8.05766 8.06169 8.06573 8.06976 8.0738  8.07783 8.08187 8.08591
 8.08996 8.094   8.09805 8.1021  8.10615 8.11021 8.11427 8.11832 8.12238
 8.12645 8.13051 8.13458 8.13864 8.14271 8.14679 8.15086 8.15494 8.15902
 8.1631  8.16718 8.17126 8.17535 8.17944 8.18353 8.18762 8.19172 8.19582
 8.19991 8.20401 8.20812 8.21222 8.21633 8.22044 8.22455 8.22866 8.23278
 8.2369  8.24102 8.24514 8.24926 8.25339 8.25751 8.26164 8.26578 8.26991
 8.27405 8.27818 8.28232 8.28647 8.29061 8.29476 8.29891 8.30306 8.30721
 8.31136 8.31552 8.31968 8.32384 8.328   8.33217 8.33633 8.3405  8.34468
 8.34885 8.35302 8.3572  8.36138 8.36556 8.36975 8.37393 8.37812 8.38231
 8.3865  8.3907  8.39489 8.39909 8.40329 8.4075  8.4117  8.41591 8.42012
 8.42433 8.42854 8.43276 8.43697 8.44119 8.44541 8.44964 8.45386 8.45809
 8.46232 8.46655 8.47079 8.47503 8.47926 8.4835  8.48775 8.49199 8.49624
 8.50049 8.50474 8.50899 8.51325 8.51751 8.52177 8.52603 8.53029 8.53456
 8.53883 8.5431  8.54737 8.55164 8.55592 8.5602  8.56448 8.56877 8.57305
 8.57734 8.58163 8.58592 8.59021 8.59451 8.59881 8.60311 8.60741 8.61172
 8.61602 8.62033 8.62464 8.62896 8.63327 8.63759 8.64191 8.64623 8.65056
 8.65488 8.65921 8.66354 8.66787 8.67221 8.67655 8.68089 8.68523 8.68957
 8.69392 8.69827 8.70262 8.70697 8.71132 8.71568 8.72004 8.7244  8.72876
 8.73313 8.7375  8.74187 8.74624 8.75061 8.75499 8.75937 8.76375 8.76813
 8.77252 8.7769  8.78129 8.78568 8.79008 8.79447 8.79887 8.80327 8.80768
 8.81208 8.81649 8.8209  8.82531 8.82972 8.83414 8.83856 8.84298 8.8474
 8.85182 8.85625 8.86068 8.86511 8.86955 8.87398 8.87842 8.88286 8.8873
 8.89175 8.89619]
[2.95152148e-17 3.13724710e-17 3.33339254e-17 3.54106372e-17
 3.76152672e-17 3.99487920e-17 4.24182038e-17 4.50308408e-17
 4.77944028e-17 5.07254081e-17 5.38159278e-17 5.70922618e-17
 6.05553606e-17 6.42256059e-17 6.80928354e-17 7.21895919e-17
 7.65043422e-17 8.10731958e-17 8.58969248e-17 9.10032627e-17
 9.63775352e-17 1.02064240e-16 1.08063955e-16 1.14392579e-16
 1.21066755e-16 1.28103905e-16 1.35543475e-16 1.43385628e-16
 1.51650511e-16 1.60359220e-16 1.69533841e-16 1.79225049e-16
 1.89403435e-16 2.00151078e-16 2.11467248e-16 2.23380055e-16
 2.35954611e-16 2.49152442e-16 2.63079320e-16 2.77733985e-16
 2.93152549e-16 3.09372983e-16 3.26483567e-16 3.44432178e-16
 3.63362555e-16 3.83273465e-16 4.04214621e-16 4.26300751e-16
 4.49466143e-16 4.73897524e-16 4.99595410e-16 5.26626308e-16
 5.55060795e-16 5.85058119e-16 6.16533784e-16 6.49746038e-16
 6.84701641e-16 7.21497636e-16 7.60346434e-16 8.01146476e-16
 8.44240019e-16 8.89645272e-16 9.37498130e-16 9.87943922e-16
 1.04128735e-15 1.09740441e-15 1.15678073e-15 1.21945897e-15
 1.28564444e-15 1.35575242e-15 1.42963709e-15 1.50795325e-15
 1.59077497e-15 1.67839015e-15 1.77110568e-15 1.86952278e-15
 1.97345649e-15 2.08384323e-15 2.20080378e-15 2.32510267e-15
 2.45651202e-15 2.59621478e-15 2.74395031e-15 2.90104160e-15
 3.06764967e-15 3.24484249e-15 3.43226873e-15 3.63157378e-15
 3.84292531e-15 4.06700778e-15 4.30452957e-15 4.55691996e-15
 4.82357568e-15 5.10670977e-15 5.40641810e-15 5.72350897e-15
 6.05972835e-15 6.41410242e-15 6.78937220e-15 7.18544846e-15
 7.60316361e-15 8.04334020e-15 8.50805998e-15 8.99562598e-15
 9.50941647e-15 1.00488893e-14 1.06162857e-14 1.12092267e-14
 1.18314787e-14 1.24802558e-14 1.31594941e-14 1.38698181e-14
 1.46077610e-14 1.53774818e-14 1.61750136e-14 1.70046359e-14
 1.78641803e-14 1.87558571e-14 1.96746237e-14 2.06249319e-14
 2.16038160e-14 2.26105877e-14 2.36444300e-14 2.47043975e-14
 2.57923275e-14 2.69042347e-14 2.80387874e-14 2.91945352e-14
 3.03699142e-14 3.15664337e-14 3.27792273e-14 3.40064230e-14
 3.52460697e-14 3.64961488e-14 3.77579168e-14 3.90226138e-14
 4.02947600e-14 4.15688560e-14 4.28460860e-14 4.41175951e-14
 4.53879548e-14 4.66517436e-14 4.79069609e-14 4.91516932e-14
 5.03841308e-14 5.16057607e-14 5.28117615e-14 5.40007126e-14
 5.51713551e-14 5.63226036e-14 5.74564896e-14 5.85692589e-14
 5.96603983e-14 6.07296017e-14 6.17767736e-14 6.28046797e-14
 6.38082968e-14 6.47934094e-14 6.57581221e-14 6.67058288e-14
 6.76327609e-14 6.85450929e-14 6.94419140e-14 7.03249156e-14
 7.11959405e-14 7.20569671e-14 7.29123018e-14 7.37619148e-14
 7.46081114e-14 7.54532644e-14 7.62997960e-14 7.71523684e-14
 7.80112745e-14 7.88789899e-14 7.97579649e-14 8.06506067e-14
 8.15616327e-14 8.24910431e-14 8.34410340e-14 8.44136948e-14
 8.54109959e-14 8.64374516e-14 8.74894870e-14 8.85740833e-14
 8.96899699e-14 9.08413816e-14 9.20234876e-14 9.32432709e-14
 9.44984695e-14 9.57896423e-14 9.71171751e-14 9.84848276e-14
 9.98856518e-14 1.01326715e-13 1.02804198e-13 1.04321588e-13
 1.05870570e-13 1.07458352e-13 1.09080167e-13 1.10735046e-13
 1.12421903e-13 1.14139549e-13 1.15891191e-13 1.17671104e-13
 1.19477825e-13 1.21309823e-13 1.23170255e-13 1.25048028e-13
 1.26950996e-13 1.28872667e-13 1.30811268e-13 1.32769977e-13
 1.34737058e-13 1.36720660e-13 1.38713957e-13 1.40715099e-13
 1.42727327e-13 1.44738632e-13 1.46757356e-13 1.48776579e-13
 1.50794485e-13 1.52814356e-13 1.54824235e-13 1.56832504e-13
 1.58832334e-13 1.60822002e-13 1.62804775e-13 1.64769015e-13
 1.66722961e-13 1.68660018e-13 1.70578584e-13 1.72477083e-13
 1.74358655e-13 1.76216975e-13 1.78050541e-13 1.79857880e-13
 1.81637547e-13 1.83392477e-13 1.85116777e-13 1.86809080e-13
 1.88468049e-13 1.90092376e-13 1.91684708e-13 1.93239683e-13
 1.94756077e-13 1.96232697e-13 1.97668380e-13 1.99065420e-13
 2.00415769e-13 2.01725093e-13 2.02992024e-13 2.04209271e-13
 2.05381922e-13 2.06503230e-13 2.07577880e-13 2.08604642e-13
 2.09577615e-13 2.10500847e-13 2.11369029e-13 2.12185770e-13
 2.12948195e-13 2.13657371e-13 2.14309226e-13 2.14906459e-13
 2.15446903e-13 2.15930123e-13 2.16356706e-13 2.16725043e-13
 2.17034148e-13 2.17285297e-13 2.17477857e-13 2.17610731e-13
 2.17684473e-13 2.17698670e-13 2.17653391e-13 2.17548249e-13
 2.17383861e-13 2.17159571e-13 2.16875915e-13 2.16533149e-13
 2.16131581e-13 2.15671568e-13 2.15152179e-13 2.14574933e-13
 2.13940344e-13 2.13248977e-13 2.12499551e-13 2.11694357e-13
 2.10836278e-13 2.09921887e-13 2.08951608e-13 2.07931031e-13
 2.06856097e-13 2.05730202e-13 2.04554362e-13 2.03329643e-13
 2.02054001e-13 2.00731523e-13 1.99363418e-13 1.97950943e-13
 1.96495397e-13 1.94994442e-13 1.93456736e-13 1.91876251e-13
 1.90254192e-13 1.88599923e-13 1.86907005e-13 1.85185227e-13
 1.83427904e-13 1.81636511e-13 1.79821420e-13 1.77975644e-13
 1.76105356e-13 1.74212413e-13 1.72298710e-13 1.70366173e-13
 1.68412044e-13 1.66442965e-13 1.64460971e-13 1.62468125e-13
 1.60461698e-13 1.58453435e-13 1.56435830e-13 1.54411035e-13
 1.52390937e-13 1.50372905e-13 1.48354340e-13 1.46342335e-13
 1.44339149e-13 1.42342291e-13 1.40363557e-13 1.38395746e-13
 1.36445871e-13 1.34516180e-13 1.32604379e-13 1.30721781e-13
 1.28861584e-13 1.27030465e-13 1.25226288e-13 1.23459688e-13
 1.21724268e-13 1.20026229e-13 1.18367456e-13 1.16749754e-13
 1.15171152e-13 1.13640759e-13 1.12152835e-13 1.10712492e-13
 1.09317793e-13 1.07976513e-13 1.06683341e-13 1.05442423e-13
 1.04254512e-13 1.03117589e-13 1.02034962e-13 1.01009253e-13
 1.00035700e-13 9.91145911e-14 9.82499747e-14 9.74372932e-14
 9.66779733e-14 9.59711397e-14 9.53157178e-14 9.47090663e-14
 9.41513029e-14 9.36407434e-14 9.31755074e-14 9.27535223e-14
 9.23716807e-14 9.20285658e-14 9.17215460e-14 9.14478241e-14
 9.12044478e-14 9.09878439e-14 9.07953658e-14 9.06236433e-14
 9.04688578e-14 9.03281596e-14 9.01972357e-14 9.00727104e-14
 8.99508269e-14 8.98278087e-14 8.96995719e-14 8.95626161e-14
 8.94131958e-14 8.92476242e-14 8.90618359e-14 8.88531760e-14
 8.86172636e-14 8.83512754e-14 8.80513515e-14 8.77159224e-14
 8.73406546e-14 8.69237069e-14 8.64627233e-14 8.59543524e-14
 8.53990615e-14 8.47926498e-14 8.41349785e-14 8.34249529e-14
 8.26599311e-14 8.18409527e-14 8.09677633e-14 8.00403936e-14
 7.90591570e-14 7.80222009e-14 7.69325957e-14 7.57914809e-14
 7.46002547e-14 7.33605635e-14 7.20712807e-14 7.07373202e-14
 6.93610106e-14 6.79448737e-14 6.64882335e-14 6.49971689e-14
 6.34746959e-14 6.19239518e-14 6.03481748e-14 5.87470067e-14
 5.71274297e-14 5.54928890e-14 5.38468511e-14 5.21890008e-14
 5.05303479e-14 4.88667499e-14 4.72053732e-14 4.55457669e-14
 4.38987056e-14 4.22598238e-14 4.06359116e-14 3.90262390e-14
 3.74408681e-14 3.58752112e-14 3.43353586e-14 3.28236050e-14
 3.13420710e-14 2.98894501e-14 2.84709091e-14 2.70880349e-14
 2.57422288e-14 2.44347072e-14 2.31636792e-14 2.19330051e-14
 2.07433657e-14 1.95927245e-14 1.84866058e-14 1.74201967e-14
 1.63960687e-14 1.54141022e-14 1.44719694e-14 1.35735171e-14]
Integrated fluxes
Total integrated flux of complex: 1.4020043157295743e-13
Section 3: 11.2 micron feature
Integrated flux of 11.2 micron feature:
4.023191854290473e-14
